PE UV       SUBTECH     SPECTRUM    ASCII       PEDS        4.00        
   -1
SampleCriBGO_UG1 air.Sample.asc
11/01/16
04:26:34.00
11/01/16
04:26:34.00
PerkinElmer Method Developer

250.000000
1
Lambda 35
502S12111107
PerkinElmer UV WinLab 6.0.4.0738 / Lambda35 1.27

480
2
1
0
0
Both on
1
1
1
None
0
0
0
0
 
 
0
0
0
0
0
 
 
 
0
 
0
326
0
 
0
 
 
 
0
0
0
 
0
 
 
 
0
 
 
0
0
0
0
0
 
 
 
 
0
0


0
0
#HDR
-1
-1
#GR
nm
%T
1.0
0.0
900.000000
-1.000000
651
8
44.748234
-1.424814
#DATA
900.000000	0.077980
899.000000	0.029301
898.000000	0.063629
897.000000	0.107848
896.000000	0.024574
895.000000	0.137795
894.000000	0.103464
893.000000	0.024701
892.000000	-0.019826
891.000000	0.044703
890.000000	0.059687
889.000000	-0.039934
888.000000	0.045029
887.000000	0.020057
886.000000	-0.050196
885.000000	0.156093
884.000000	-0.010107
883.000000	0.025336
882.000000	0.025346
881.000000	0.081558
880.000000	-0.040820
879.000000	0.097251
878.000000	0.102680
877.000000	0.041131
876.000000	0.082666
875.000000	0.113937
874.000000	0.145319
873.000000	0.124695
872.000000	0.187647
871.000000	0.062775
870.000000	-0.031417
869.000000	0.183910
868.000000	0.126329
867.000000	0.063298
866.000000	0.206480
865.000000	0.121938
864.000000	0.047837
863.000000	0.111952
862.000000	0.218737
861.000000	0.224575
860.000000	0.182286
859.000000	0.139522
858.000000	0.118330
857.000000	0.124190
856.000000	0.156697
855.000000	0.259909
854.000000	0.249390
853.000000	0.059744
852.000000	0.136121
851.000000	0.266855
850.000000	0.218317
849.000000	0.103848
848.000000	0.371971
847.000000	0.230301
846.000000	0.164681
845.000000	0.197911
844.000000	0.302547
843.000000	0.347759
842.000000	0.231545
841.000000	0.226294
840.000000	0.287182
839.000000	0.271318
838.000000	0.265575
837.000000	0.321365
836.000000	0.277439
835.000000	0.316825
834.000000	0.372491
833.000000	0.450050
832.000000	0.294903
831.000000	0.518048
830.000000	0.439866
829.000000	0.367668
828.000000	0.484896
827.000000	0.500751
826.000000	0.468541
825.000000	0.629948
824.000000	0.579775
823.000000	0.490305
822.000000	0.630580
821.000000	0.523764
820.000000	0.791880
819.000000	0.501505
818.000000	0.696262
817.000000	0.679666
816.000000	0.817439
815.000000	0.835050
814.000000	0.722905
813.000000	0.961058
812.000000	0.850283
811.000000	1.088224
810.000000	0.949736
809.000000	1.110124
808.000000	1.151908
807.000000	1.081051
806.000000	1.134728
805.000000	1.294391
804.000000	1.205686
803.000000	1.404324
802.000000	1.271421
801.000000	1.633374
800.000000	1.561552
799.000000	1.592901
798.000000	1.597972
797.000000	1.832490
796.000000	1.796901
795.000000	1.751881
794.000000	1.910199
793.000000	2.050326
792.000000	2.000548
791.000000	2.032654
790.000000	2.177481
789.000000	2.147541
788.000000	2.184121
787.000000	2.303493
786.000000	2.269132
785.000000	2.391328
784.000000	2.417511
783.000000	2.482038
782.000000	2.491161
781.000000	2.535150
780.000000	2.658420
779.000000	2.607894
778.000000	2.695813
777.000000	2.819039
776.000000	2.908520
775.000000	3.018500
774.000000	3.150670
773.000000	3.253656
772.000000	3.427278
771.000000	3.574505
770.000000	3.681576
769.000000	4.027748
768.000000	4.145830
767.000000	4.404103
766.000000	4.673148
765.000000	4.917417
764.000000	5.182125
763.000000	5.484078
762.000000	5.805865
761.000000	6.108343
760.000000	6.454205
759.000000	6.719051
758.000000	7.036464
757.000000	7.245758
756.000000	7.530667
755.000000	7.772269
754.000000	7.932705
753.000000	8.095593
752.000000	8.253073
751.000000	8.410917
750.000000	8.389119
749.000000	8.411712
748.000000	8.392203
747.000000	8.339530
746.000000	8.253226
745.000000	8.092762
744.000000	7.921527
743.000000	7.740053
742.000000	7.487141
741.000000	7.215183
740.000000	6.888877
739.000000	6.620024
738.000000	6.253640
737.000000	5.918475
736.000000	5.618811
735.000000	5.249788
734.000000	4.860743
733.000000	4.593565
732.000000	4.271875
731.000000	3.983073
730.000000	3.713500
729.000000	3.380774
728.000000	3.127150
727.000000	2.910053
726.000000	2.629769
725.000000	2.387254
724.000000	2.170461
723.000000	1.973023
722.000000	1.788549
721.000000	1.576886
720.000000	1.361157
719.000000	1.196717
718.000000	1.038631
717.000000	0.863668
716.000000	0.689107
715.000000	0.588142
714.000000	0.477175
713.000000	0.408445
712.000000	0.302275
711.000000	0.222977
710.000000	0.190931
709.000000	0.122107
708.000000	0.058396
707.000000	0.047809
706.000000	0.053141
705.000000	-0.005317
704.000000	0.047839
703.000000	-0.005319
702.000000	-0.005315
701.000000	0.005319
700.000000	-0.026599
699.000000	0.010650
698.000000	0.026621
697.000000	0.015982
696.000000	-0.010656
695.000000	-0.026635
694.000000	0.021328
693.000000	-0.026665
692.000000	-0.016000
691.000000	0.032026
690.000000	-0.010680
689.000000	0.000000
688.000000	0.010681
687.000000	0.016041
686.000000	-0.016033
685.000000	0.000000
684.000000	-0.010699
683.000000	-0.042705
682.000000	0.069482
681.000000	-0.005340
680.000000	0.101577
679.000000	0.037429
678.000000	0.032086
677.000000	-0.026707
676.000000	-0.074790
675.000000	0.069526
674.000000	0.037443
673.000000	-0.016021
672.000000	-0.042746
671.000000	-0.112168
670.000000	0.037429
669.000000	-0.064113
668.000000	0.021382
667.000000	0.058811
666.000000	-0.053379
665.000000	-0.005342
664.000000	-0.037381
663.000000	0.053367
662.000000	-0.069444
661.000000	-0.112090
660.000000	0.026687
659.000000	0.042687
658.000000	-0.010670
657.000000	0.015992
656.000000	-0.085261
655.000000	-0.015983
654.000000	-0.037286
653.000000	-0.085202
652.000000	0.010636
651.000000	0.053206
650.000000	0.010642
649.000000	-0.047875
648.000000	0.026608
647.000000	-0.042546
646.000000	0.047900
645.000000	-0.058480
644.000000	-0.037204
643.000000	0.005315
642.000000	-0.095648
641.000000	-0.026560
640.000000	-0.021233
639.000000	0.015929
638.000000	-0.031827
637.000000	-0.021213
636.000000	-0.010621
635.000000	0.026536
634.000000	-0.074294
633.000000	0.015917
632.000000	0.021231
631.000000	-0.021220
630.000000	-0.005304
629.000000	-0.015914
628.000000	0.015920
627.000000	0.000000
626.000000	-0.037147
625.000000	0.005304
624.000000	-0.047728
623.000000	-0.010617
622.000000	-0.021236
621.000000	-0.074278
620.000000	-0.026532
619.000000	0.015917
618.000000	-0.005306
617.000000	-0.010617
616.000000	-0.021209
615.000000	-0.010615
614.000000	-0.058396
613.000000	-0.069035
612.000000	-0.053064
611.000000	0.015908
610.000000	-0.042409
609.000000	0.010613
608.000000	0.037141
607.000000	-0.047750
606.000000	-0.005305
605.000000	-0.021237
604.000000	0.000000
603.000000	-0.031869
602.000000	-0.015929
601.000000	-0.015935
600.000000	-0.026552
599.000000	0.015947
598.000000	0.015944
597.000000	-0.053177
596.000000	0.053180
595.000000	-0.015986
594.000000	0.000000
593.000000	0.021336
592.000000	-0.032039
591.000000	-0.005341
590.000000	0.000000
589.000000	-0.026741
588.000000	-0.048242
587.000000	-0.053671
586.000000	-0.026840
585.000000	-0.042988
584.000000	-0.021537
583.000000	-0.048502
582.000000	-0.080945
581.000000	0.005401
580.000000	0.043234
579.000000	-0.027037
578.000000	-0.043323
577.000000	-0.016245
576.000000	-0.043363
575.000000	0.037932
574.000000	-0.054251
573.000000	-0.048868
572.000000	-0.081433
571.000000	-0.038054
570.000000	-0.070748
569.000000	0.000000
568.000000	-0.032667
567.000000	-0.174377
566.000000	-0.010910
565.000000	0.060017
564.000000	-0.130947
563.000000	0.109242
562.000000	0.005467
561.000000	-0.016412
560.000000	0.010948
559.000000	-0.027378
558.000000	0.000000
557.000000	-0.038434
556.000000	-0.076843
555.000000	0.010990
554.000000	-0.043975
553.000000	-0.043990
552.000000	0.010993
551.000000	-0.088009
550.000000	-0.033054
549.000000	-0.005509
548.000000	0.000000
547.000000	0.016555
546.000000	-0.115875
545.000000	0.005519
544.000000	0.000000
543.000000	-0.071835
542.000000	-0.044218
541.000000	-0.033177
540.000000	-0.033213
539.000000	0.038820
538.000000	-0.044412
537.000000	-0.038839
536.000000	-0.049983
535.000000	-0.011111
534.000000	-0.077916
533.000000	-0.038962
532.000000	-0.044588
531.000000	-0.050201
530.000000	-0.027913
529.000000	-0.083804
528.000000	0.039185
527.000000	-0.011199
526.000000	-0.022429
525.000000	-0.050514
524.000000	0.011230
523.000000	0.000000
522.000000	-0.045045
521.000000	0.033845
520.000000	-0.056462
519.000000	-0.056491
518.000000	-0.045282
517.000000	0.062291
516.000000	-0.034037
515.000000	0.028406
514.000000	-0.085392
513.000000	-0.022789
512.000000	-0.051294
511.000000	-0.057110
510.000000	0.045746
509.000000	-0.057274
508.000000	-0.045937
507.000000	-0.086207
506.000000	-0.005752
505.000000	-0.034618
504.000000	-0.069368
503.000000	-0.063739
502.000000	-0.081239
501.000000	-0.029034
500.000000	0.040747
499.000000	0.011666
498.000000	-0.105239
497.000000	-0.058531
496.000000	-0.023451
495.000000	-0.011755
494.000000	-0.053022
493.000000	-0.106157
492.000000	0.023663
491.000000	-0.053431
490.000000	0.065356
489.000000	-0.047693
488.000000	-0.017916
487.000000	-0.065892
486.000000	-0.042045
485.000000	-0.168787
484.000000	-0.012077
483.000000	0.018174
482.000000	-0.030377
481.000000	0.006093
480.000000	-0.097877
479.000000	-0.055157
478.000000	-0.012296
477.000000	0.049383
476.000000	0.129975
475.000000	-0.031029
474.000000	-0.105939
473.000000	0.056331
472.000000	0.018808
471.000000	0.018873
470.000000	-0.158008
469.000000	-0.076099
468.000000	-0.050933
467.000000	-0.204108
466.000000	0.000000
465.000000	-0.090090
464.000000	-0.058080
463.000000	0.006468
462.000000	0.000000
461.000000	0.052131
460.000000	-0.111600
459.000000	-0.026273
458.000000	-0.065980
457.000000	-0.085962
456.000000	0.033201
455.000000	-0.213590
454.000000	0.060197
453.000000	-0.256099
452.000000	-0.101235
451.000000	-0.196331
450.000000	0.108637
449.000000	0.102291
448.000000	0.095897
447.000000	-0.185912
446.000000	-0.068937
445.000000	0.083385
444.000000	0.076816
443.000000	-0.140390
442.000000	-0.113042
441.000000	-0.070897
440.000000	-0.007118
439.000000	-0.179173
438.000000	-0.100930
437.000000	-0.123358
436.000000	-0.109226
435.000000	-0.248975
434.000000	-0.080918
433.000000	-0.111301
432.000000	-0.283985
431.000000	-0.104869
430.000000	-0.257011
429.000000	-0.159502
428.000000	0.198246
427.000000	0.045879
426.000000	-0.092450
425.000000	-0.379668
424.000000	-0.093582
423.000000	-0.078425
422.000000	-0.086943
421.000000	0.269328
420.000000	-0.063699
419.000000	0.048004
418.000000	-0.072272
417.000000	-0.064636
416.000000	-0.032460
415.000000	0.057078
414.000000	-0.032816
413.000000	-0.082427
412.000000	-0.074584
411.000000	0.024985
410.000000	-0.016746
409.000000	-0.042059
408.000000	-0.076129
407.000000	0.025499
406.000000	-0.042742
405.000000	0.077260
404.000000	-0.077680
403.000000	-0.104112
402.000000	0.139421
401.000000	0.026281
400.000000	0.158912
399.000000	0.203865
398.000000	0.400927
397.000000	0.564567
396.000000	0.863931
395.000000	1.322224
394.000000	1.963458
393.000000	2.462243
392.000000	3.411396
391.000000	4.448779
390.000000	5.897723
389.000000	7.320507
388.000000	9.016239
387.000000	10.753301
386.000000	12.827599
385.000000	14.374394
384.000000	14.943433
383.000000	19.597468
382.000000	19.508083
381.000000	20.997506
380.000000	25.183568
379.000000	28.417988
378.000000	29.519054
377.000000	30.337527
376.000000	33.296180
375.000000	34.384537
374.000000	36.186850
373.000000	37.181752
372.000000	40.627326
371.000000	39.285336
370.000000	41.325766
369.000000	40.853659
368.000000	42.510514
367.000000	43.374945
366.000000	43.810149
365.000000	44.064230
364.000000	43.543175
363.000000	44.499326
362.000000	44.748234
361.000000	43.672342
360.000000	43.961962
359.000000	42.468281
358.000000	43.551996
357.000000	44.314972
356.000000	43.590656
355.000000	42.424601
354.000000	41.384214
353.000000	41.366820
352.000000	42.467113
351.000000	38.663108
350.000000	38.679707
349.000000	38.125154
348.000000	37.280921
347.000000	36.547649
346.000000	37.211368
345.000000	35.436157
344.000000	33.384754
343.000000	32.939969
342.000000	31.468348
341.000000	31.097721
340.000000	30.543549
339.000000	27.805851
338.000000	29.363504
337.000000	26.327078
336.000000	25.531915
335.000000	25.036740
334.000000	23.916008
333.000000	24.827491
332.000000	19.104192
331.000000	17.438991
330.000000	16.012426
329.000000	16.524535
328.000000	15.992460
327.000000	16.195482
326.000000	13.763353
325.000000	13.384742
324.000000	12.617280
323.000000	10.392867
322.000000	9.799208
321.000000	7.943925
320.000000	7.475577
319.000000	7.096867
318.000000	6.491813
317.000000	4.929269
316.000000	3.734196
315.000000	4.315587
314.000000	2.314815
313.000000	1.612174
312.000000	1.107907
311.000000	0.439128
310.000000	-0.153539
309.000000	0.401544
308.000000	0.218170
307.000000	-0.204563
306.000000	-0.031591
305.000000	0.368354
304.000000	-0.145255
303.000000	-0.849118
302.000000	-0.427913
301.000000	0.050067
300.000000	-0.234899
299.000000	-0.169924
298.000000	-0.293407
297.000000	-1.118686
296.000000	-0.176523
295.000000	-0.747996
294.000000	-1.091625
293.000000	-0.109389
292.000000	-0.532501
291.000000	-1.382661
290.000000	-0.451977
289.000000	-0.786194
288.000000	0.381607
287.000000	0.039471
286.000000	0.079412
285.000000	-0.683280
284.000000	0.020371
283.000000	-0.102062
282.000000	-0.787728
281.000000	-0.827323
280.000000	-0.449102
279.000000	-0.516462
278.000000	-0.890337
277.000000	-1.424814
276.000000	-0.525970
275.000000	-0.775709
274.000000	-1.118819
273.000000	0.044883
272.000000	0.521779
271.000000	-0.616579
270.000000	0.045798
269.000000	-0.963524
268.000000	-0.417246
267.000000	-0.671763
266.000000	-0.489853
265.000000	0.023458
264.000000	-0.639205
263.000000	-0.401322
262.000000	-0.790041
261.000000	-0.457611
260.000000	-0.462850
259.000000	-0.024637
258.000000	-0.768278
257.000000	-0.400701
256.000000	0.000000
255.000000	0.178389
254.000000	-0.439504
253.000000	-0.234253
252.000000	0.105541
251.000000	0.320684
250.000000	-0.437397
