PE UV       SUBTECH     SPECTRUM    ASCII       PEDS        4.00        
   -1
SampleCrBGOorizzontale.Sample.asc
11/01/16
05:09:20.00
11/01/16
05:09:20.00
PerkinElmer Method Developer

250.000000
1
Lambda 35
502S12111107
PerkinElmer UV WinLab 6.0.4.0738 / Lambda35 1.27

480
2
1
0
0
Both on
1
1
1
None
0
0
0
0
 
 
0
0
0
0
0
 
 
 
0
 
0
326
0
 
0
 
 
 
0
0
0
 
0
 
 
 
0
 
 
0
0
0
0
0
 
 
 
 
0
0


0
0
#HDR
-1
-1
#GR
nm
%T
1.0
0.0
900.000000
-1.000000
651
8
85.282833
5.952938
#DATA
900.000000	83.326835
899.000000	83.430190
898.000000	83.255837
897.000000	83.254081
896.000000	83.407873
895.000000	83.415354
894.000000	83.312805
893.000000	83.321806
892.000000	83.410983
891.000000	83.330850
890.000000	83.357374
889.000000	83.482254
888.000000	83.364187
887.000000	83.427769
886.000000	83.340026
885.000000	83.343404
884.000000	83.591065
883.000000	83.394984
882.000000	83.413596
881.000000	83.550821
880.000000	83.309521
879.000000	83.354660
878.000000	83.427457
877.000000	83.393316
876.000000	83.570137
875.000000	83.582785
874.000000	83.433672
873.000000	83.342859
872.000000	83.507949
871.000000	83.464114
870.000000	83.233846
869.000000	83.553150
868.000000	83.498263
867.000000	83.352674
866.000000	83.455104
865.000000	83.458806
864.000000	83.629212
863.000000	83.692291
862.000000	83.263978
861.000000	83.429580
860.000000	83.508471
859.000000	83.471961
858.000000	83.476764
857.000000	83.633909
856.000000	83.611606
855.000000	83.609487
854.000000	83.589049
853.000000	83.494460
852.000000	83.621910
851.000000	83.356933
850.000000	83.582578
849.000000	83.581111
848.000000	83.589519
847.000000	83.632176
846.000000	83.641653
845.000000	83.589885
844.000000	83.568953
843.000000	83.649812
842.000000	83.615414
841.000000	83.403245
840.000000	83.525708
839.000000	83.477298
838.000000	83.589687
837.000000	83.449690
836.000000	83.547886
835.000000	83.669613
834.000000	83.677100
833.000000	83.503723
832.000000	83.541064
831.000000	83.634135
830.000000	83.580178
829.000000	83.694502
828.000000	83.691896
827.000000	83.458521
826.000000	83.751673
825.000000	83.699409
824.000000	83.710559
823.000000	83.569200
822.000000	83.643973
821.000000	83.685296
820.000000	83.744145
819.000000	83.673242
818.000000	83.540355
817.000000	83.760446
816.000000	83.439915
815.000000	83.705394
814.000000	83.662348
813.000000	83.567580
812.000000	83.561187
811.000000	83.643329
810.000000	83.671202
809.000000	83.714476
808.000000	83.552085
807.000000	83.695532
806.000000	83.554744
805.000000	83.687355
804.000000	83.761960
803.000000	83.828164
802.000000	83.858485
801.000000	83.743516
800.000000	83.711306
799.000000	83.822962
798.000000	83.733745
797.000000	83.760731
796.000000	83.685020
795.000000	83.887089
794.000000	83.774289
793.000000	83.739927
792.000000	83.896958
791.000000	83.837388
790.000000	83.849436
789.000000	83.803279
788.000000	83.826581
787.000000	83.875546
786.000000	83.881525
785.000000	83.799978
784.000000	83.888707
783.000000	83.872197
782.000000	83.921675
781.000000	83.866240
780.000000	83.859592
779.000000	83.794188
778.000000	83.830549
777.000000	83.888106
776.000000	83.865027
775.000000	83.766093
774.000000	83.884565
773.000000	83.882804
772.000000	83.763539
771.000000	83.914729
770.000000	83.852737
769.000000	83.926651
768.000000	83.825348
767.000000	83.780010
766.000000	83.864210
765.000000	83.740884
764.000000	83.895714
763.000000	83.853329
762.000000	83.797089
761.000000	83.893265
760.000000	83.802892
759.000000	83.857173
758.000000	83.812930
757.000000	83.801088
756.000000	83.824000
755.000000	83.901061
754.000000	83.815152
753.000000	83.814137
752.000000	83.861012
751.000000	83.789966
750.000000	83.758368
749.000000	83.835485
748.000000	83.736124
747.000000	83.846808
746.000000	83.865314
745.000000	83.793250
744.000000	83.785790
743.000000	83.888594
742.000000	83.806140
741.000000	83.825478
740.000000	83.821737
739.000000	83.839508
738.000000	83.754302
737.000000	83.832716
736.000000	83.826722
735.000000	83.769052
734.000000	83.834586
733.000000	83.806097
732.000000	83.849452
731.000000	83.819095
730.000000	83.786500
729.000000	83.789218
728.000000	83.866871
727.000000	83.835979
726.000000	83.782211
725.000000	83.876773
724.000000	83.853891
723.000000	83.750331
722.000000	83.717854
721.000000	83.728437
720.000000	83.777342
719.000000	83.759598
718.000000	83.811139
717.000000	83.796959
716.000000	83.790087
715.000000	83.749271
714.000000	83.797254
713.000000	83.853172
712.000000	83.724877
711.000000	83.834147
710.000000	83.712543
709.000000	83.722659
708.000000	83.744758
707.000000	83.798141
706.000000	83.813370
705.000000	83.800308
704.000000	83.755913
703.000000	83.773003
702.000000	83.724021
701.000000	83.718951
700.000000	83.726992
699.000000	83.753994
698.000000	83.723778
697.000000	83.772841
696.000000	83.744472
695.000000	83.693799
694.000000	83.737670
693.000000	83.691536
692.000000	83.733333
691.000000	83.741660
690.000000	83.781908
689.000000	83.774109
688.000000	83.716086
687.000000	83.734360
686.000000	83.694084
685.000000	83.716578
684.000000	83.667683
683.000000	83.675866
682.000000	83.826831
681.000000	83.679573
680.000000	83.859930
679.000000	83.793177
678.000000	83.828877
677.000000	83.671616
676.000000	83.711737
675.000000	83.907370
674.000000	83.936882
673.000000	83.627043
672.000000	83.745659
671.000000	83.709005
670.000000	83.777136
669.000000	83.747395
668.000000	83.856310
667.000000	83.826989
666.000000	83.692751
665.000000	83.872863
664.000000	83.771227
663.000000	83.706906
662.000000	83.750000
661.000000	83.784361
660.000000	83.827925
659.000000	83.762873
658.000000	83.862363
657.000000	83.725145
656.000000	83.901737
655.000000	83.713372
654.000000	83.780761
653.000000	83.758454
652.000000	83.700277
651.000000	83.713754
650.000000	83.750133
649.000000	83.727858
648.000000	83.885903
647.000000	83.779184
646.000000	83.814998
645.000000	83.891547
644.000000	83.709806
643.000000	83.843537
642.000000	83.777034
641.000000	83.760956
640.000000	83.645629
639.000000	83.789094
638.000000	83.720560
637.000000	83.670980
636.000000	83.760820
635.000000	83.733149
634.000000	83.718956
633.000000	83.653438
632.000000	83.662420
631.000000	83.724138
630.000000	83.721424
629.000000	83.756830
628.000000	83.676502
627.000000	83.661240
626.000000	83.687115
625.000000	83.604731
624.000000	83.608209
623.000000	83.755375
622.000000	83.775749
621.000000	83.664049
620.000000	83.703900
619.000000	83.589771
618.000000	83.683540
617.000000	83.697845
616.000000	83.573701
615.000000	83.685384
614.000000	83.696979
613.000000	83.713026
612.000000	83.693287
611.000000	83.594040
610.000000	83.481764
609.000000	83.671195
608.000000	83.594206
607.000000	83.520798
606.000000	83.569420
605.000000	83.541280
604.000000	83.554517
603.000000	83.640516
602.000000	83.597940
601.000000	83.619270
600.000000	83.521852
599.000000	83.595577
598.000000	83.434311
597.000000	83.589471
596.000000	83.514146
595.000000	83.614856
594.000000	83.536683
593.000000	83.550245
592.000000	83.595878
591.000000	83.570131
590.000000	83.551612
589.000000	83.549043
588.000000	83.565609
587.000000	83.651782
586.000000	83.557894
585.000000	83.535733
584.000000	83.621386
583.000000	83.579435
582.000000	83.686795
581.000000	83.597969
580.000000	83.468439
579.000000	83.588385
578.000000	83.634788
577.000000	83.429902
576.000000	83.565505
575.000000	83.369459
574.000000	83.529539
573.000000	83.466363
572.000000	83.387622
571.000000	83.397662
570.000000	83.493878
569.000000	83.566719
568.000000	83.350574
567.000000	83.417797
566.000000	83.454258
565.000000	83.424269
564.000000	83.418813
563.000000	83.340616
562.000000	83.391647
561.000000	83.461896
560.000000	83.364353
559.000000	83.239336
558.000000	83.289459
557.000000	83.330588
556.000000	83.303145
555.000000	83.311353
554.000000	83.201407
553.000000	83.305840
552.000000	83.104320
551.000000	83.151815
550.000000	83.318643
549.000000	83.230498
548.000000	83.308511
547.000000	83.245958
546.000000	83.203664
545.000000	83.133727
544.000000	83.126345
543.000000	83.151904
542.000000	83.130665
541.000000	83.052253
540.000000	83.055632
539.000000	83.174357
538.000000	83.228779
537.000000	82.944016
536.000000	82.983450
535.000000	83.027778
534.000000	83.053206
533.000000	83.012357
532.000000	83.011927
531.000000	82.948461
530.000000	82.923017
529.000000	82.971116
528.000000	83.004926
527.000000	82.916177
526.000000	82.920265
525.000000	82.870292
524.000000	82.918749
523.000000	82.939455
522.000000	82.809685
521.000000	82.863267
520.000000	82.852465
519.000000	82.792905
518.000000	82.860701
517.000000	82.841611
516.000000	82.760381
515.000000	82.871265
514.000000	82.847546
513.000000	82.731313
512.000000	82.600023
511.000000	82.724158
510.000000	82.650961
509.000000	82.709049
508.000000	82.727534
507.000000	82.626437
506.000000	82.599942
505.000000	82.685207
504.000000	82.646396
503.000000	82.744235
502.000000	82.678582
501.000000	82.573602
500.000000	82.635776
499.000000	82.594494
498.000000	82.518709
497.000000	82.516828
496.000000	82.382600
495.000000	82.543787
494.000000	82.461412
493.000000	82.366124
492.000000	82.418363
491.000000	82.587271
490.000000	82.472818
489.000000	82.490760
488.000000	82.406689
487.000000	82.322990
486.000000	82.383326
485.000000	82.331666
484.000000	82.319908
483.000000	82.358999
482.000000	82.260024
481.000000	82.304552
480.000000	82.241390
479.000000	82.245511
478.000000	82.177548
477.000000	82.271605
476.000000	82.125395
475.000000	82.170783
474.000000	82.127500
473.000000	82.249484
472.000000	82.032474
471.000000	82.070961
470.000000	81.885982
469.000000	81.939248
468.000000	82.071688
467.000000	81.968363
466.000000	81.954406
465.000000	81.994852
464.000000	82.001807
463.000000	81.824062
462.000000	81.946523
461.000000	81.767236
460.000000	81.979912
459.000000	81.714286
458.000000	81.650831
457.000000	81.465318
456.000000	81.713147
455.000000	81.818182
454.000000	81.446057
453.000000	81.897830
452.000000	81.669704
451.000000	81.490759
450.000000	81.212656
449.000000	81.294326
448.000000	81.368587
447.000000	81.456999
446.000000	81.035434
445.000000	81.418942
444.000000	81.312849
443.000000	81.419346
442.000000	81.588244
441.000000	81.155619
440.000000	81.072039
439.000000	81.079338
438.000000	81.140509
437.000000	81.430956
436.000000	80.841768
435.000000	81.048623
434.000000	80.969545
433.000000	80.952734
432.000000	81.025334
431.000000	80.651685
430.000000	81.018973
429.000000	80.988911
428.000000	80.770111
427.000000	80.623949
426.000000	80.855162
425.000000	80.660158
424.000000	80.776729
423.000000	80.534860
422.000000	81.085994
421.000000	80.964829
420.000000	80.611514
419.000000	80.526442
418.000000	80.382237
417.000000	80.415286
416.000000	80.467419
415.000000	80.242988
414.000000	80.433177
413.000000	80.184636
412.000000	80.227066
411.000000	80.136587
410.000000	80.231098
409.000000	80.038694
408.000000	80.037219
407.000000	79.974501
406.000000	80.039323
405.000000	79.878101
404.000000	79.889522
403.000000	79.828214
402.000000	79.644475
401.000000	79.579501
400.000000	79.782820
399.000000	79.471725
398.000000	79.526016
397.000000	79.478448
396.000000	79.373650
395.000000	79.251947
394.000000	79.201891
393.000000	79.276888
392.000000	79.245805
391.000000	79.307142
390.000000	79.152669
389.000000	79.155326
388.000000	78.974698
387.000000	79.082360
386.000000	78.795387
385.000000	80.000000
384.000000	85.282833
383.000000	79.079656
382.000000	79.946445
381.000000	81.187032
380.000000	81.434808
379.000000	79.441879
378.000000	80.792745
377.000000	78.560016
376.000000	77.707974
375.000000	76.469990
374.000000	78.701513
373.000000	78.260418
372.000000	78.511430
371.000000	80.288411
370.000000	78.496466
369.000000	77.759949
368.000000	78.227111
367.000000	78.613666
366.000000	77.121610
365.000000	77.652270
364.000000	76.768802
363.000000	77.346206
362.000000	77.443609
361.000000	77.185918
360.000000	75.710357
359.000000	76.239908
358.000000	76.681192
357.000000	75.388418
356.000000	75.453575
355.000000	74.725015
354.000000	73.903769
353.000000	74.704178
352.000000	76.011417
351.000000	72.340167
350.000000	71.992665
349.000000	72.702636
348.000000	71.594892
347.000000	72.177521
346.000000	71.606191
345.000000	70.493047
344.000000	70.536059
343.000000	68.996921
342.000000	72.274757
341.000000	68.221116
340.000000	67.164375
339.000000	68.085106
338.000000	69.008866
337.000000	66.233244
336.000000	65.784574
335.000000	65.023380
334.000000	64.535042
333.000000	65.070384
332.000000	61.190769
331.000000	63.284892
330.000000	63.936741
329.000000	59.835034
328.000000	56.981296
327.000000	56.897287
326.000000	53.533279
325.000000	52.671440
324.000000	53.017785
323.000000	49.665645
322.000000	47.893100
321.000000	45.312943
320.000000	42.715560
319.000000	39.190156
318.000000	34.661643
317.000000	31.150649
316.000000	25.860041
315.000000	20.717781
314.000000	16.039427
313.000000	11.014012
312.000000	8.635605
311.000000	6.980618
310.000000	6.678950
309.000000	6.965251
308.000000	5.952938
307.000000	7.505901
306.000000	6.002211
305.000000	6.678411
304.000000	7.069077
303.000000	7.103201
302.000000	7.373272
301.000000	8.160881
300.000000	7.718121
299.000000	8.241291
298.000000	8.060062
297.000000	7.970635
296.000000	7.555163
295.000000	8.619768
294.000000	7.587688
293.000000	8.988149
292.000000	9.713551
291.000000	9.192825
290.000000	8.964218
289.000000	9.280920
288.000000	9.769128
287.000000	10.144069
286.000000	10.422871
285.000000	9.827170
284.000000	11.448360
283.000000	10.246989
282.000000	10.717247
281.000000	10.861264
280.000000	10.564585
279.000000	11.103938
278.000000	11.422367
277.000000	11.157387
276.000000	11.724742
275.000000	11.591312
274.000000	11.277691
273.000000	11.333034
272.000000	11.842105
271.000000	11.509477
270.000000	10.991527
269.000000	11.470521
268.000000	11.451089
267.000000	9.821635
266.000000	11.010030
265.000000	10.555947
264.000000	10.179924
263.000000	10.953730
262.000000	9.767776
261.000000	10.332370
260.000000	10.109622
259.000000	10.199557
258.000000	10.929368
257.000000	10.793889
256.000000	10.475951
255.000000	10.117227
254.000000	10.703206
253.000000	10.827694
252.000000	10.290237
251.000000	9.967932
250.000000	10.497540
