PE UV       SUBTECH     SPECTRUM    ASCII       PEDS        4.00        
   -1
Sample610.Sample.asc
11/01/16
03:34:29.00
11/01/16
03:34:29.00
PerkinElmer Method Developer

250.000000
1
Lambda 35
502S12111107
PerkinElmer UV WinLab 6.0.4.0738 / Lambda35 1.27

480
2
1
0
0
Both on
1
1
1
None
0
0
0
0
 
 
0
0
0
0
0
 
 
 
0
 
0
326
0
 
0
 
 
 
0
0
0
 
0
 
 
 
0
 
 
0
0
0
0
0
 
 
 
 
0
0


0
0
#HDR
-1
-1
#GR
nm
%T
1.0
0.0
900.000000
-1.000000
651
8
93.035810
-2.428926
#DATA
900.000000	91.758456
899.000000	91.649167
898.000000	91.879986
897.000000	91.661356
896.000000	91.812061
895.000000	91.643701
894.000000	91.713061
893.000000	91.873333
892.000000	91.787272
891.000000	91.859137
890.000000	91.798060
889.000000	91.833475
888.000000	92.004803
887.000000	92.017249
886.000000	91.833149
885.000000	91.792548
884.000000	91.914291
883.000000	92.074994
882.000000	91.722005
881.000000	92.088898
880.000000	91.932850
879.000000	91.743871
878.000000	91.960160
877.000000	91.758355
876.000000	91.965900
875.000000	91.936403
874.000000	91.872535
873.000000	91.874058
872.000000	92.004170
871.000000	92.147939
870.000000	91.815897
869.000000	92.013031
868.000000	91.835983
867.000000	91.802933
866.000000	92.037272
865.000000	91.899056
864.000000	91.979377
863.000000	92.094040
862.000000	91.960094
861.000000	92.022244
860.000000	92.000858
859.000000	91.945264
858.000000	91.985800
857.000000	92.100432
856.000000	92.030043
855.000000	91.942820
854.000000	91.992410
853.000000	92.016076
852.000000	92.197539
851.000000	91.934430
850.000000	92.129680
849.000000	92.063839
848.000000	92.095618
847.000000	92.153315
846.000000	92.051381
845.000000	92.182518
844.000000	92.034765
843.000000	92.470744
842.000000	92.204642
841.000000	92.057622
840.000000	92.091456
839.000000	92.214839
838.000000	92.071484
837.000000	92.104388
836.000000	92.137388
835.000000	92.157190
834.000000	92.138767
833.000000	91.971330
832.000000	92.221233
831.000000	92.340686
830.000000	92.115813
829.000000	92.189850
828.000000	92.241668
827.000000	91.954599
826.000000	92.375056
825.000000	92.245512
824.000000	92.334708
823.000000	92.199688
822.000000	92.338170
821.000000	92.310693
820.000000	92.215035
819.000000	92.237825
818.000000	92.235281
817.000000	92.250696
816.000000	92.259356
815.000000	92.401047
814.000000	92.237113
813.000000	92.261541
812.000000	92.247416
811.000000	92.360224
810.000000	92.318800
809.000000	92.456705
808.000000	92.202470
807.000000	92.388291
806.000000	92.339201
805.000000	92.239186
804.000000	92.356617
803.000000	92.431028
802.000000	92.504146
801.000000	92.395983
800.000000	92.313635
799.000000	92.382737
798.000000	92.390346
797.000000	92.515959
796.000000	92.361798
795.000000	92.437805
794.000000	92.414096
793.000000	92.418179
792.000000	92.469170
791.000000	92.472058
790.000000	92.460882
789.000000	92.486339
788.000000	92.399257
787.000000	92.570961
786.000000	92.598047
785.000000	92.493736
784.000000	92.518785
783.000000	92.575659
782.000000	92.608104
781.000000	92.617122
780.000000	92.534722
779.000000	92.501627
778.000000	92.558039
777.000000	92.529546
776.000000	92.704328
775.000000	92.616034
774.000000	92.574578
773.000000	92.580802
772.000000	92.649674
771.000000	92.576443
770.000000	92.647613
769.000000	92.697354
768.000000	92.719256
767.000000	92.674150
766.000000	92.582049
765.000000	92.605105
764.000000	92.704254
763.000000	92.607484
762.000000	92.578125
761.000000	92.739645
760.000000	92.667381
759.000000	92.692966
758.000000	92.728632
757.000000	92.674208
756.000000	92.768000
755.000000	92.712831
754.000000	92.668903
753.000000	92.676176
752.000000	92.710052
751.000000	92.759483
750.000000	92.646903
749.000000	92.698868
748.000000	92.728528
747.000000	92.797195
746.000000	92.777099
745.000000	92.735088
744.000000	92.656416
743.000000	92.732095
742.000000	92.772681
741.000000	92.795420
740.000000	92.814371
739.000000	92.834049
738.000000	92.846174
737.000000	92.795130
736.000000	92.797755
735.000000	92.707451
734.000000	92.820078
733.000000	92.802710
732.000000	92.837859
731.000000	92.758529
730.000000	92.826915
729.000000	92.809904
728.000000	92.872639
727.000000	92.814815
726.000000	92.756230
725.000000	92.859411
724.000000	92.858655
723.000000	92.822005
722.000000	92.803471
721.000000	92.819346
720.000000	92.860548
719.000000	92.840879
718.000000	92.835568
717.000000	92.831028
716.000000	92.875696
715.000000	92.783341
714.000000	92.900695
713.000000	92.918523
712.000000	92.830249
711.000000	92.939053
710.000000	92.840095
709.000000	92.859418
708.000000	92.833254
707.000000	92.892430
706.000000	92.921671
705.000000	92.928917
704.000000	92.898528
703.000000	92.878417
702.000000	92.861319
701.000000	92.851444
700.000000	92.866262
699.000000	92.944622
698.000000	92.870834
697.000000	92.919930
696.000000	92.849912
695.000000	92.792457
694.000000	92.903226
693.000000	92.939043
692.000000	92.880000
691.000000	92.879637
690.000000	92.918936
689.000000	92.915531
688.000000	92.875454
687.000000	92.893808
686.000000	92.870504
685.000000	92.914439
684.000000	92.906436
683.000000	92.702717
682.000000	93.035810
681.000000	92.993324
680.000000	92.948410
679.000000	92.984708
678.000000	92.935829
677.000000	92.917423
676.000000	92.905604
675.000000	93.020644
674.000000	92.966034
673.000000	92.785432
672.000000	92.920118
671.000000	92.949471
670.000000	92.974013
669.000000	92.792648
668.000000	92.815524
667.000000	92.921300
666.000000	92.745810
665.000000	92.857906
664.000000	92.860194
663.000000	92.699328
662.000000	92.831197
661.000000	92.778223
660.000000	92.623826
659.000000	92.673817
658.000000	92.664711
657.000000	92.584893
656.000000	92.624960
655.000000	92.488013
654.000000	92.399063
653.000000	92.470313
652.000000	92.368645
651.000000	92.274541
650.000000	92.188996
649.000000	92.132560
648.000000	92.171784
647.000000	92.043823
646.000000	91.862260
645.000000	91.802233
644.000000	91.591815
643.000000	91.507228
642.000000	91.359796
641.000000	91.118194
640.000000	90.790382
639.000000	90.755589
638.000000	90.377679
637.000000	90.050912
636.000000	89.968669
635.000000	89.502176
634.000000	89.131819
633.000000	88.667233
632.000000	88.232484
631.000000	87.671088
630.000000	86.972896
629.000000	86.456952
628.000000	85.698366
627.000000	84.801400
626.000000	83.968372
625.000000	82.840927
624.000000	81.778650
623.000000	80.559537
622.000000	79.167551
621.000000	77.578523
620.000000	75.951181
619.000000	74.060908
618.000000	72.047119
617.000000	69.954348
616.000000	67.645811
615.000000	65.136397
614.000000	62.414397
613.000000	59.619776
612.000000	56.460600
611.000000	53.332626
610.000000	49.872774
609.000000	46.577160
608.000000	43.009498
607.000000	39.441851
606.000000	35.832140
605.000000	32.243164
604.000000	28.755707
603.000000	25.250969
602.000000	22.025169
601.000000	18.861210
600.000000	16.101110
599.000000	13.565809
598.000000	11.229804
597.000000	9.114597
596.000000	7.461178
595.000000	5.951937
594.000000	4.598007
593.000000	3.616386
592.000000	2.846158
591.000000	2.141865
590.000000	1.539531
589.000000	1.214034
588.000000	0.900515
587.000000	0.665522
586.000000	0.558269
585.000000	0.354648
584.000000	0.360739
583.000000	0.188618
582.000000	0.259025
581.000000	0.205228
580.000000	0.205361
579.000000	0.156816
578.000000	0.173291
577.000000	0.151622
576.000000	0.178871
575.000000	0.113796
574.000000	0.113926
573.000000	0.141174
572.000000	0.168295
571.000000	0.157652
570.000000	0.130612
569.000000	0.223397
568.000000	0.185115
567.000000	0.108986
566.000000	0.196389
565.000000	0.098210
564.000000	0.212789
563.000000	0.174787
562.000000	0.202274
561.000000	0.082061
560.000000	0.142325
559.000000	0.191644
558.000000	0.159044
557.000000	0.093340
556.000000	0.219551
555.000000	0.192329
554.000000	0.181398
553.000000	0.175960
552.000000	0.153897
551.000000	0.264026
550.000000	0.176289
549.000000	0.115690
548.000000	0.198577
547.000000	0.275923
546.000000	0.259339
545.000000	0.193167
544.000000	0.248385
543.000000	0.198928
542.000000	0.182401
541.000000	0.165883
540.000000	0.166067
539.000000	0.188554
538.000000	0.183201
537.000000	0.138712
536.000000	0.238809
535.000000	0.300000
534.000000	0.211487
533.000000	0.244907
532.000000	0.178352
531.000000	0.211959
530.000000	0.167476
529.000000	0.201129
528.000000	0.229512
527.000000	0.274371
526.000000	0.179433
525.000000	0.213279
524.000000	0.185300
523.000000	0.253207
522.000000	0.225225
521.000000	0.186146
520.000000	0.282310
519.000000	0.180771
518.000000	0.254712
517.000000	0.288805
516.000000	0.289312
515.000000	0.193160
514.000000	0.261870
513.000000	0.193710
512.000000	0.199476
511.000000	0.188464
510.000000	0.148673
509.000000	0.252005
508.000000	0.223945
507.000000	0.172414
506.000000	0.184067
505.000000	0.190399
504.000000	0.167640
503.000000	0.214393
502.000000	0.133465
501.000000	0.168399
500.000000	0.174632
499.000000	0.244984
498.000000	0.292329
497.000000	0.234124
496.000000	0.164155
495.000000	0.217468
494.000000	0.217980
493.000000	0.194621
492.000000	0.254378
491.000000	0.189979
490.000000	0.285188
489.000000	0.113271
488.000000	0.191102
487.000000	0.173715
486.000000	0.132140
485.000000	0.343601
484.000000	0.241531
483.000000	0.315018
482.000000	0.236938
481.000000	0.207178
480.000000	0.171285
479.000000	0.245143
478.000000	0.190582
477.000000	0.234568
476.000000	0.253760
475.000000	0.310289
474.000000	0.137097
473.000000	0.206547
472.000000	0.144192
471.000000	0.182436
470.000000	0.170648
469.000000	0.285370
468.000000	0.146432
467.000000	0.267891
466.000000	0.204918
465.000000	0.263835
464.000000	0.219411
463.000000	0.168176
462.000000	0.260230
461.000000	0.221556
460.000000	0.288847
459.000000	0.288998
458.000000	0.178147
457.000000	0.198373
456.000000	0.152722
455.000000	0.146843
454.000000	0.127082
453.000000	0.195444
452.000000	0.148478
451.000000	0.385891
450.000000	0.224063
449.000000	0.306874
448.000000	0.205494
447.000000	0.179026
446.000000	-0.048256
445.000000	0.111181
444.000000	0.153631
443.000000	0.098273
442.000000	0.197824
441.000000	0.283587
440.000000	0.199317
439.000000	0.387014
438.000000	0.389301
437.000000	-0.021769
436.000000	0.509721
435.000000	0.344171
434.000000	0.382522
433.000000	0.185501
432.000000	0.440924
431.000000	0.232210
430.000000	0.445990
429.000000	0.288622
428.000000	0.472741
427.000000	0.038232
426.000000	0.261941
425.000000	0.395165
424.000000	0.272947
423.000000	0.015685
422.000000	0.276636
421.000000	0.427757
420.000000	0.238873
419.000000	0.360029
418.000000	0.329238
417.000000	0.274703
416.000000	0.348941
415.000000	0.244618
414.000000	0.254328
413.000000	0.304979
412.000000	0.323195
411.000000	0.358124
410.000000	0.276312
409.000000	0.311238
408.000000	0.346811
407.000000	0.305992
406.000000	0.299196
405.000000	0.351962
404.000000	0.327982
403.000000	0.364394
402.000000	0.479261
401.000000	0.367937
400.000000	0.344310
399.000000	0.336820
398.000000	0.338560
397.000000	0.483914
396.000000	0.422966
395.000000	0.443760
394.000000	0.345423
393.000000	0.402746
392.000000	0.488659
391.000000	0.371506
390.000000	0.279955
389.000000	0.516190
388.000000	0.377644
387.000000	0.484469
386.000000	0.324026
385.000000	0.387973
384.000000	-0.521397
383.000000	-2.229991
382.000000	0.624814
381.000000	-1.027431
380.000000	0.565588
379.000000	0.562136
378.000000	0.020379
377.000000	-0.229678
376.000000	0.415442
375.000000	0.691760
374.000000	-0.061735
373.000000	-0.145485
372.000000	0.404040
371.000000	-0.063620
370.000000	1.820518
369.000000	0.299529
368.000000	0.140192
367.000000	-0.503723
366.000000	0.021872
365.000000	0.088594
364.000000	1.025070
363.000000	-0.561293
362.000000	-0.079745
361.000000	1.081454
360.000000	0.664528
359.000000	0.507497
358.000000	-0.117772
357.000000	-0.047081
356.000000	0.747065
355.000000	0.189237
354.000000	0.237023
353.000000	0.410529
352.000000	-0.223380
351.000000	-1.237414
350.000000	0.342298
349.000000	0.110865
348.000000	1.151728
347.000000	1.357807
346.000000	-0.380614
345.000000	0.353982
344.000000	-0.051420
343.000000	-1.231401
342.000000	0.853691
341.000000	0.261986
340.000000	-0.563196
339.000000	-0.425532
338.000000	0.674871
337.000000	2.372654
336.000000	0.585106
335.000000	-0.748163
334.000000	1.922552
333.000000	-2.428926
332.000000	0.778370
331.000000	0.479846
330.000000	-0.254165
329.000000	-0.503285
328.000000	0.695955
327.000000	1.164938
326.000000	0.684744
325.000000	-0.110162
324.000000	-0.504131
323.000000	0.724436
322.000000	0.579751
321.000000	0.070801
320.000000	0.014158
319.000000	0.286164
318.000000	1.159252
317.000000	0.758349
316.000000	0.396942
315.000000	-0.044491
314.000000	0.298686
313.000000	1.145096
312.000000	0.030354
311.000000	0.696548
310.000000	0.583448
309.000000	0.818533
308.000000	0.046751
307.000000	-0.424862
306.000000	0.157953
305.000000	-0.528507
304.000000	0.936088
303.000000	0.489876
302.000000	0.279789
301.000000	0.250334
300.000000	0.738255
299.000000	0.730671
298.000000	1.501553
297.000000	-0.174795
296.000000	0.335393
295.000000	0.017809
294.000000	1.413744
293.000000	-0.218778
292.000000	0.661036
291.000000	0.280269
290.000000	0.546139
289.000000	1.016299
288.000000	1.278382
287.000000	0.690744
286.000000	1.012507
285.000000	0.241158
284.000000	0.244449
283.000000	1.408451
282.000000	1.430348
281.000000	0.127280
280.000000	1.240376
279.000000	1.054444
278.000000	1.324647
277.000000	0.789128
276.000000	0.876616
275.000000	1.374113
274.000000	1.320206
273.000000	0.583483
272.000000	0.408348
271.000000	0.730760
270.000000	0.228990
269.000000	0.550585
268.000000	0.857673
267.000000	0.810748
266.000000	1.679496
265.000000	1.290171
264.000000	0.733902
263.000000	-0.070822
262.000000	0.885803
261.000000	0.602119
260.000000	0.950061
259.000000	1.010101
258.000000	0.693928
257.000000	0.951665
256.000000	0.604382
255.000000	0.407747
254.000000	1.008273
253.000000	1.145237
252.000000	1.081794
251.000000	1.042223
250.000000	1.011482
