PE UV       SUBTECH     SPECTRUM    ASCII       PEDS        4.00        
   -1
Sample400.Sample.asc
11/01/16
03:53:32.00
11/01/16
03:53:32.00
PerkinElmer Method Developer

250.000000
1
Lambda 35
502S12111107
PerkinElmer UV WinLab 6.0.4.0738 / Lambda35 1.27

480
2
1
0
0
Both on
1
1
1
None
0
0
0
0
 
 
0
0
0
0
0
 
 
 
0
 
0
326
0
 
0
 
 
 
0
0
0
 
0
 
 
 
0
 
 
0
0
0
0
0
 
 
 
 
0
0


0
0
#HDR
-1
-1
#GR
nm
%T
1.0
0.0
900.000000
-1.000000
651
8
109.227742
-0.882290
#DATA
900.000000	77.736622
899.000000	78.063193
898.000000	79.007391
897.000000	79.837247
896.000000	81.152013
895.000000	82.775591
894.000000	84.293245
893.000000	86.152554
892.000000	87.896511
891.000000	89.941886
890.000000	91.638896
889.000000	93.420856
888.000000	94.786611
887.000000	96.033696
886.000000	96.596727
885.000000	97.009063
884.000000	96.593895
883.000000	95.931087
882.000000	94.175496
881.000000	92.654705
880.000000	90.070415
879.000000	87.388033
878.000000	84.546668
877.000000	81.578406
876.000000	78.651511
875.000000	75.643482
874.000000	72.763131
873.000000	69.839455
872.000000	67.599687
871.000000	65.233312
870.000000	63.142737
869.000000	61.604750
868.000000	60.274766
867.000000	59.252031
866.000000	58.508047
865.000000	57.989609
864.000000	57.813330
863.000000	57.921953
862.000000	58.050576
861.000000	58.827933
860.000000	59.671885
859.000000	60.837134
858.000000	62.376291
857.000000	64.222462
856.000000	65.877776
855.000000	68.166558
854.000000	70.132827
853.000000	72.463611
852.000000	74.627028
851.000000	76.533057
850.000000	78.413929
849.000000	79.596633
848.000000	80.247251
847.000000	80.534079
846.000000	79.832025
845.000000	78.823529
844.000000	77.066945
843.000000	75.071760
842.000000	72.247643
841.000000	69.328844
840.000000	66.377644
839.000000	63.582503
838.000000	60.694921
837.000000	58.200355
836.000000	55.892798
835.000000	53.888055
834.000000	52.204370
833.000000	50.488943
832.000000	49.365680
831.000000	48.729947
830.000000	48.084633
829.000000	47.741073
828.000000	47.686991
827.000000	47.938575
826.000000	48.449353
825.000000	49.029992
824.000000	49.916379
823.000000	50.991754
822.000000	52.360491
821.000000	54.031314
820.000000	55.431631
819.000000	56.837178
818.000000	58.123990
817.000000	59.281337
816.000000	59.906578
815.000000	60.257195
814.000000	60.167936
813.000000	59.202267
812.000000	57.969323
811.000000	56.332241
810.000000	54.140517
809.000000	51.892762
808.000000	49.327131
807.000000	46.989688
806.000000	44.664010
805.000000	42.526828
804.000000	40.456833
803.000000	38.668657
802.000000	37.236042
801.000000	35.917669
800.000000	34.966617
799.000000	34.195006
798.000000	33.562927
797.000000	33.111380
796.000000	33.102539
795.000000	33.153935
794.000000	33.313207
793.000000	33.813936
792.000000	34.436832
791.000000	35.294762
790.000000	36.163694
789.000000	37.191257
788.000000	38.325871
787.000000	39.541485
786.000000	40.718922
785.000000	41.622181
784.000000	42.388108
783.000000	43.021990
782.000000	43.263530
781.000000	43.135552
780.000000	42.795139
779.000000	41.894383
778.000000	40.941636
777.000000	39.829773
776.000000	38.552781
775.000000	37.211944
774.000000	36.019239
773.000000	34.916096
772.000000	33.933287
771.000000	32.972653
770.000000	32.326821
769.000000	31.791783
768.000000	31.408292
767.000000	31.167087
766.000000	31.197293
765.000000	31.182969
764.000000	31.495091
763.000000	31.885923
762.000000	32.346961
761.000000	33.017200
760.000000	33.663631
759.000000	34.129784
758.000000	34.648444
757.000000	35.097642
756.000000	35.221333
755.000000	35.188443
754.000000	34.855987
753.000000	34.325101
752.000000	33.576332
751.000000	32.584987
750.000000	31.457868
749.000000	30.437324
748.000000	29.234610
747.000000	28.221608
746.000000	27.266451
745.000000	26.400976
744.000000	25.668081
743.000000	25.098143
742.000000	24.661965
741.000000	24.439379
740.000000	24.291241
739.000000	24.375894
738.000000	24.495631
737.000000	24.775013
736.000000	25.112535
735.000000	25.640347
734.000000	26.188711
733.000000	26.751693
732.000000	27.335768
731.000000	27.775721
730.000000	28.205671
729.000000	28.432358
728.000000	28.694640
727.000000	28.645503
726.000000	28.572940
725.000000	28.239466
724.000000	27.866596
723.000000	27.431896
722.000000	26.981691
721.000000	26.579532
720.000000	26.248610
719.000000	25.983585
718.000000	25.822691
717.000000	25.878239
716.000000	25.921018
715.000000	26.111376
714.000000	26.488521
713.000000	26.851262
712.000000	27.247176
711.000000	27.707581
710.000000	27.987271
709.000000	28.259715
708.000000	28.300685
707.000000	28.122178
706.000000	27.739398
705.000000	27.205061
704.000000	26.465742
703.000000	25.577066
702.000000	24.653165
701.000000	23.785969
700.000000	22.890733
699.000000	22.188498
698.000000	21.573847
697.000000	21.069735
696.000000	20.762960
695.000000	20.589175
694.000000	20.671821
693.000000	20.852221
692.000000	21.264000
691.000000	21.782760
690.000000	22.402008
689.000000	23.230219
688.000000	24.049348
687.000000	24.820875
686.000000	25.514403
685.000000	26.064171
684.000000	26.373509
683.000000	26.520045
682.000000	26.354890
681.000000	26.157543
680.000000	25.784550
679.000000	25.478558
678.000000	24.989305
677.000000	24.564683
676.000000	24.258775
675.000000	24.072093
674.000000	24.172239
673.000000	24.511375
672.000000	25.065456
671.000000	25.606239
670.000000	26.660250
669.000000	27.440295
668.000000	28.492008
667.000000	29.266467
666.000000	29.998932
665.000000	30.304487
664.000000	30.070490
663.000000	29.586936
662.000000	28.525641
661.000000	27.317854
660.000000	25.955380
659.000000	24.571794
658.000000	23.435583
657.000000	22.351938
656.000000	21.634872
655.000000	20.953649
654.000000	20.863961
653.000000	20.730603
652.000000	21.091257
651.000000	21.787709
650.000000	22.815792
649.000000	23.937443
648.000000	25.618647
647.000000	27.235016
646.000000	28.766832
645.000000	29.340776
644.000000	28.636726
643.000000	26.185162
642.000000	22.434773
641.000000	18.390438
640.000000	14.677000
639.000000	11.745341
638.000000	9.526841
637.000000	7.960331
636.000000	6.791992
635.000000	6.151152
634.000000	5.747187
633.000000	5.539049
632.000000	5.668790
631.000000	5.798408
630.000000	5.558797
629.000000	4.477216
628.000000	3.072596
627.000000	1.792438
626.000000	1.071959
625.000000	0.631199
624.000000	0.445458
623.000000	0.270744
622.000000	0.201741
621.000000	0.084890
620.000000	0.026532
619.000000	0.074278
618.000000	0.053062
617.000000	0.042467
616.000000	0.010604
615.000000	0.084917
614.000000	0.047778
613.000000	0.047794
612.000000	0.010613
611.000000	0.047723
610.000000	0.063613
609.000000	0.021227
608.000000	0.026529
607.000000	-0.047750
606.000000	-0.010611
605.000000	0.005309
604.000000	0.058393
603.000000	0.005312
602.000000	0.063718
601.000000	0.047804
600.000000	0.037173
599.000000	0.021263
598.000000	0.010629
597.000000	0.005318
596.000000	0.015954
595.000000	0.074599
594.000000	0.010656
593.000000	0.042671
592.000000	0.074758
591.000000	0.069437
590.000000	-0.010691
589.000000	0.000000
588.000000	0.042882
587.000000	0.032203
586.000000	0.016104
585.000000	0.069855
584.000000	0.037689
583.000000	0.080836
582.000000	0.000000
581.000000	0.064809
580.000000	0.032425
579.000000	0.059482
578.000000	0.075815
577.000000	0.048736
576.000000	0.000000
575.000000	0.086702
574.000000	-0.086801
573.000000	0.021719
572.000000	-0.065147
571.000000	-0.016309
570.000000	0.119728
569.000000	0.038141
568.000000	0.043556
567.000000	0.049044
566.000000	0.043642
565.000000	0.054561
564.000000	0.136403
563.000000	0.032773
562.000000	0.142139
561.000000	-0.043766
560.000000	-0.109481
559.000000	0.049280
558.000000	-0.021937
557.000000	-0.065887
556.000000	0.104287
555.000000	0.076932
554.000000	-0.010994
553.000000	0.054987
552.000000	0.065956
551.000000	0.005501
550.000000	0.049581
549.000000	0.110181
548.000000	0.033096
547.000000	0.071740
546.000000	-0.005518
545.000000	0.071748
544.000000	0.011039
543.000000	0.038680
542.000000	0.071855
541.000000	-0.038706
540.000000	-0.016607
539.000000	0.027728
538.000000	-0.022206
537.000000	-0.027742
536.000000	0.000000
535.000000	0.022222
534.000000	-0.016696
533.000000	-0.011132
532.000000	-0.055735
531.000000	0.027889
530.000000	0.027913
529.000000	0.033521
528.000000	0.033587
527.000000	-0.089591
526.000000	0.044858
525.000000	0.000000
524.000000	-0.011230
523.000000	0.005627
522.000000	-0.005631
521.000000	0.067690
520.000000	0.073401
519.000000	0.005649
518.000000	-0.028301
517.000000	0.090605
516.000000	0.017018
515.000000	0.028406
514.000000	0.096778
513.000000	0.113947
512.000000	0.068392
511.000000	-0.022844
510.000000	0.000000
509.000000	0.022910
508.000000	-0.097617
507.000000	0.051724
506.000000	-0.023008
505.000000	0.034618
504.000000	-0.034684
503.000000	-0.098505
502.000000	-0.040620
501.000000	0.017421
500.000000	-0.017463
499.000000	0.116659
498.000000	0.040926
497.000000	-0.005853
496.000000	0.000000
495.000000	-0.129305
494.000000	-0.047131
493.000000	0.082567
492.000000	0.011832
491.000000	0.011874
490.000000	-0.005941
489.000000	0.005962
488.000000	0.035832
487.000000	0.107823
486.000000	0.006006
485.000000	0.078365
484.000000	-0.102651
483.000000	0.096929
482.000000	0.054678
481.000000	-0.121869
480.000000	-0.055056
479.000000	0.122572
478.000000	0.018443
477.000000	-0.043210
476.000000	-0.043325
475.000000	0.031029
474.000000	-0.018695
473.000000	0.050072
472.000000	0.087769
471.000000	0.006291
470.000000	0.056883
469.000000	-0.057074
468.000000	0.076399
467.000000	0.057405
466.000000	-0.012807
465.000000	0.045045
464.000000	0.051626
463.000000	0.019405
462.000000	0.045540
461.000000	-0.065164
460.000000	-0.072212
459.000000	0.052545
458.000000	0.085775
457.000000	0.066124
456.000000	0.139442
455.000000	0.133494
454.000000	0.053508
453.000000	0.067395
452.000000	0.269960
451.000000	-0.108320
450.000000	0.264802
449.000000	0.034097
448.000000	0.020549
447.000000	0.103284
446.000000	-0.048256
445.000000	0.020846
444.000000	0.020950
443.000000	0.070195
442.000000	-0.007065
441.000000	-0.063807
440.000000	0.014237
439.000000	-0.229341
438.000000	0.086511
437.000000	0.101589
436.000000	0.211170
435.000000	-0.021968
434.000000	0.036781
433.000000	-0.140981
432.000000	-0.089679
431.000000	0.187266
430.000000	-0.188979
429.000000	0.144311
428.000000	-0.099123
427.000000	0.198807
426.000000	-0.023112
425.000000	-0.178212
424.000000	-0.046791
423.000000	0.274488
422.000000	0.205501
421.000000	-0.190114
420.000000	-0.007962
419.000000	-0.032003
418.000000	0.016060
417.000000	0.056557
416.000000	-0.032460
415.000000	-0.057078
414.000000	0.041021
413.000000	0.008243
412.000000	0.099445
411.000000	0.000000
410.000000	-0.075358
409.000000	0.058883
408.000000	0.042294
407.000000	0.186995
406.000000	0.068388
405.000000	-0.008584
404.000000	0.120835
403.000000	0.173521
402.000000	0.313698
401.000000	0.262812
400.000000	0.856361
399.000000	2.827513
398.000000	12.295082
397.000000	51.554799
396.000000	96.085313
395.000000	102.879913
394.000000	101.845287
393.000000	102.297483
392.000000	102.618477
391.000000	102.777004
390.000000	102.398283
389.000000	101.980291
388.000000	101.633308
387.000000	101.662392
386.000000	101.601067
385.000000	99.970902
384.000000	109.227742
383.000000	98.544836
382.000000	105.474561
381.000000	103.860349
380.000000	100.813654
379.000000	102.138125
378.000000	102.292643
377.000000	98.901538
376.000000	100.425575
375.000000	100.935910
374.000000	100.370408
373.000000	101.413281
372.000000	101.031366
371.000000	101.229986
370.000000	99.775112
369.000000	100.064185
368.000000	99.557856
367.000000	99.956198
366.000000	98.348644
365.000000	99.512735
364.000000	100.066852
363.000000	99.337674
362.000000	99.840510
361.000000	99.355729
360.000000	98.304308
359.000000	100.507497
358.000000	99.434696
357.000000	98.858286
356.000000	100.758923
355.000000	99.692490
354.000000	98.151221
353.000000	99.420430
352.000000	100.397121
351.000000	98.131748
350.000000	97.897311
349.000000	98.817443
348.000000	100.325488
347.000000	99.358813
346.000000	100.494798
345.000000	99.304678
344.000000	97.904615
343.000000	98.114418
342.000000	100.499081
341.000000	97.236049
340.000000	99.371316
339.000000	99.428191
338.000000	100.198491
337.000000	99.048257
336.000000	96.063830
335.000000	97.595190
334.000000	100.000000
333.000000	101.393872
332.000000	95.534617
331.000000	98.313682
330.000000	97.246541
329.000000	95.917797
328.000000	103.102798
327.000000	95.240801
326.000000	98.027938
325.000000	95.510879
324.000000	95.644868
323.000000	94.371691
322.000000	96.535633
321.000000	94.378363
320.000000	92.637689
319.000000	93.403920
318.000000	94.508042
317.000000	92.314423
316.000000	92.546310
315.000000	91.932374
314.000000	89.083035
313.000000	88.624378
312.000000	88.920929
311.000000	85.720775
310.000000	85.168125
309.000000	82.749035
308.000000	80.988001
307.000000	77.435090
306.000000	75.943769
305.000000	74.103139
304.000000	71.061975
303.000000	63.879817
302.000000	59.134299
301.000000	58.044059
300.000000	53.808725
299.000000	50.144435
298.000000	43.596824
297.000000	37.580843
296.000000	32.709620
295.000000	26.375779
294.000000	21.331424
293.000000	15.223336
292.000000	10.319501
291.000000	8.146487
290.000000	3.992467
289.000000	3.163950
288.000000	1.679069
287.000000	1.124926
286.000000	0.337502
285.000000	0.582797
284.000000	0.020371
283.000000	0.367422
282.000000	-0.456053
281.000000	-0.487908
280.000000	0.256630
279.000000	-0.882290
278.000000	0.065147
277.000000	0.219202
276.000000	0.416393
275.000000	0.376773
274.000000	0.022376
273.000000	-0.740575
272.000000	-0.839383
271.000000	-0.365380
270.000000	-0.274788
269.000000	0.114705
268.000000	0.000000
267.000000	-0.023164
266.000000	0.186611
265.000000	0.351865
264.000000	-0.591856
263.000000	0.495751
262.000000	-0.646397
261.000000	-0.144509
260.000000	0.219245
259.000000	-0.443459
258.000000	-0.693928
257.000000	0.175307
256.000000	-0.151095
255.000000	0.407747
254.000000	-0.284385
253.000000	0.208225
252.000000	-0.263852
251.000000	0.427579
250.000000	-0.218699
