PE UV       SUBTECH     SPECTRUM    ASCII       PEDS        4.00        
   -1
SampleCriPWO 665 grasso.Sample.asc
11/01/16
04:41:44.00
11/01/16
04:41:44.00
PerkinElmer Method Developer

250.000000
1
Lambda 35
502S12111107
PerkinElmer UV WinLab 6.0.4.0738 / Lambda35 1.27

480
2
1
0
0
Both on
1
1
1
None
0
0
0
0
 
 
0
0
0
0
0
 
 
 
0
 
0
326
0
 
0
 
 
 
0
0
0
 
0
 
 
 
0
 
 
0
0
0
0
0
 
 
 
 
0
0


0
0
#HDR
-1
-1
#GR
nm
%T
1.0
0.0
900.000000
-1.000000
651
8
78.001270
-4.475067
#DATA
900.000000	75.387465
899.000000	75.474923
898.000000	75.473545
897.000000	75.444875
896.000000	75.568880
895.000000	75.497047
894.000000	75.454501
893.000000	75.511313
892.000000	75.609635
891.000000	75.527741
890.000000	75.742353
889.000000	75.764988
888.000000	75.964377
887.000000	75.750890
886.000000	75.665094
885.000000	75.830816
884.000000	75.793410
883.000000	75.996960
882.000000	75.748973
881.000000	75.818126
880.000000	75.747525
879.000000	75.953319
878.000000	75.803471
877.000000	75.763496
876.000000	76.016533
875.000000	75.804029
874.000000	75.913432
873.000000	75.861173
872.000000	76.048997
871.000000	76.014857
870.000000	75.924181
869.000000	75.849929
868.000000	76.018528
867.000000	75.878257
866.000000	75.947692
865.000000	76.105397
864.000000	76.102902
863.000000	76.202154
862.000000	75.992318
861.000000	75.991873
860.000000	76.072271
859.000000	76.012879
858.000000	76.081110
857.000000	76.220302
856.000000	76.165775
855.000000	76.028807
854.000000	76.204934
853.000000	76.086248
852.000000	76.342154
851.000000	76.075591
850.000000	76.176182
849.000000	76.284434
848.000000	76.182922
847.000000	76.213193
846.000000	76.285887
845.000000	76.267180
844.000000	76.291325
843.000000	76.330316
842.000000	76.239043
841.000000	76.272215
840.000000	76.329596
839.000000	76.434109
838.000000	76.352772
837.000000	76.446144
836.000000	76.395517
835.000000	76.482686
834.000000	76.477456
833.000000	76.502945
832.000000	76.435566
831.000000	76.726827
830.000000	76.542316
829.000000	76.530555
828.000000	76.613532
827.000000	76.525900
826.000000	76.639893
825.000000	76.491248
824.000000	76.597168
823.000000	76.638066
822.000000	76.646205
821.000000	76.653480
820.000000	76.706447
819.000000	76.641034
818.000000	76.694703
817.000000	76.601671
816.000000	76.527832
815.000000	76.690976
814.000000	76.650170
813.000000	76.617966
812.000000	76.642214
811.000000	76.725335
810.000000	76.745349
809.000000	76.926066
808.000000	76.723708
807.000000	76.732454
806.000000	76.774051
805.000000	76.745215
804.000000	76.820972
803.000000	76.922652
802.000000	76.992814
801.000000	76.989295
800.000000	76.929868
799.000000	77.054511
798.000000	77.038792
797.000000	76.997579
796.000000	77.019453
795.000000	77.099237
794.000000	77.061148
793.000000	77.040732
792.000000	77.078652
791.000000	77.213456
790.000000	77.114564
789.000000	77.114754
788.000000	77.143169
787.000000	77.123362
786.000000	77.286860
785.000000	77.203399
784.000000	77.278667
783.000000	77.356847
782.000000	77.361980
781.000000	77.270506
780.000000	77.311198
779.000000	77.255476
778.000000	77.402907
777.000000	77.436843
776.000000	77.392623
775.000000	77.372065
774.000000	77.464332
773.000000	77.515783
772.000000	77.377809
771.000000	77.395564
770.000000	77.539157
769.000000	77.522048
768.000000	77.550142
767.000000	77.469252
766.000000	77.585003
765.000000	77.472115
764.000000	77.581675
763.000000	77.559773
762.000000	77.579195
761.000000	77.699191
760.000000	77.680771
759.000000	77.629891
758.000000	77.641343
757.000000	77.622452
756.000000	77.754667
755.000000	77.696039
754.000000	77.655327
753.000000	77.735789
752.000000	77.736391
751.000000	77.730489
750.000000	77.685687
749.000000	77.772464
748.000000	77.712859
747.000000	77.796664
746.000000	77.842689
745.000000	77.865634
744.000000	77.746554
743.000000	77.888594
742.000000	77.830214
741.000000	77.877326
740.000000	77.881405
739.000000	77.913818
738.000000	77.818374
737.000000	77.866596
736.000000	77.895462
735.000000	77.841871
734.000000	77.978397
733.000000	77.953006
732.000000	77.947171
731.000000	77.931764
730.000000	77.920017
729.000000	77.964129
728.000000	77.993545
727.000000	77.957672
726.000000	77.903593
725.000000	78.001270
724.000000	77.967178
723.000000	77.852420
722.000000	77.944756
721.000000	77.976505
720.000000	77.946083
719.000000	77.908393
718.000000	77.929098
717.000000	77.931436
716.000000	77.985688
715.000000	77.920839
714.000000	77.853772
713.000000	77.896244
712.000000	77.822559
711.000000	77.850924
710.000000	77.788385
709.000000	77.803143
708.000000	77.660986
707.000000	77.705179
706.000000	77.691572
705.000000	77.563932
704.000000	77.515548
703.000000	77.513031
702.000000	77.340137
701.000000	77.219297
700.000000	77.135866
699.000000	77.103301
698.000000	76.908742
697.000000	76.783336
696.000000	76.663648
695.000000	76.406350
694.000000	76.230339
693.000000	75.990614
692.000000	75.786667
691.000000	75.569789
690.000000	75.242978
689.000000	74.894481
688.000000	74.455245
687.000000	74.088333
686.000000	73.555662
685.000000	73.064171
684.000000	72.513775
683.000000	71.841136
682.000000	71.170497
681.000000	70.275033
680.000000	69.558941
679.000000	68.490001
678.000000	67.577540
677.000000	66.178827
676.000000	64.752391
675.000000	63.445288
674.000000	61.957743
673.000000	60.018157
672.000000	58.129842
671.000000	56.019656
670.000000	53.817774
669.000000	51.354384
668.000000	48.741113
667.000000	45.995509
666.000000	43.050069
665.000000	39.946581
664.000000	36.788423
663.000000	33.504109
662.000000	30.267094
661.000000	26.773419
660.000000	23.644321
659.000000	20.484499
658.000000	17.546012
657.000000	14.776907
656.000000	12.229564
655.000000	10.085242
654.000000	7.973794
653.000000	6.310240
652.000000	4.881940
651.000000	3.692471
650.000000	2.724274
649.000000	2.042662
648.000000	1.484753
647.000000	1.005159
646.000000	0.713183
645.000000	0.473153
644.000000	0.297635
643.000000	0.186012
642.000000	0.164727
641.000000	0.047809
640.000000	0.015924
639.000000	0.021239
638.000000	0.026522
637.000000	0.010607
636.000000	-0.021242
635.000000	0.037151
634.000000	-0.010613
633.000000	0.015917
632.000000	-0.026539
631.000000	0.053050
630.000000	-0.053042
629.000000	-0.005305
628.000000	0.031840
627.000000	-0.116668
626.000000	-0.037147
625.000000	-0.058346
624.000000	-0.010606
623.000000	-0.015926
622.000000	0.031854
621.000000	-0.026528
620.000000	0.000000
619.000000	0.026528
618.000000	-0.042449
617.000000	0.005308
616.000000	-0.010604
615.000000	0.005307
614.000000	-0.010617
613.000000	-0.021242
612.000000	-0.047758
611.000000	-0.015908
610.000000	-0.005301
609.000000	0.031840
608.000000	-0.005306
607.000000	0.031834
606.000000	-0.111412
605.000000	-0.053093
604.000000	-0.047776
603.000000	-0.074361
602.000000	-0.010620
601.000000	0.037181
600.000000	-0.031862
599.000000	-0.010632
598.000000	-0.053146
597.000000	-0.042542
596.000000	-0.042544
595.000000	-0.063942
594.000000	-0.005328
593.000000	0.032003
592.000000	0.010680
591.000000	-0.058754
590.000000	-0.042765
589.000000	-0.026741
588.000000	-0.021441
587.000000	-0.005367
586.000000	-0.021472
585.000000	-0.075228
584.000000	-0.016152
583.000000	-0.097004
582.000000	-0.032378
581.000000	-0.064809
580.000000	-0.070255
579.000000	0.037852
578.000000	0.016246
577.000000	-0.037905
576.000000	-0.010841
575.000000	-0.016257
574.000000	-0.065101
573.000000	-0.081446
572.000000	-0.124864
571.000000	-0.065235
570.000000	-0.054422
569.000000	-0.065384
568.000000	-0.032667
567.000000	-0.092638
566.000000	0.005455
565.000000	-0.010912
564.000000	-0.147316
563.000000	0.065545
562.000000	-0.049202
561.000000	0.027354
560.000000	-0.021896
559.000000	-0.005476
558.000000	-0.032906
557.000000	-0.142755
556.000000	-0.043910
555.000000	-0.049456
554.000000	0.016491
553.000000	-0.054987
552.000000	-0.109926
551.000000	-0.060506
550.000000	-0.115690
549.000000	-0.016527
548.000000	-0.022064
547.000000	-0.005518
546.000000	-0.088286
545.000000	-0.093824
544.000000	-0.049677
543.000000	-0.110516
542.000000	-0.066328
541.000000	-0.011059
540.000000	-0.099640
539.000000	-0.072094
538.000000	-0.077722
537.000000	-0.122066
536.000000	-0.116628
535.000000	-0.083333
534.000000	-0.044524
533.000000	-0.044529
532.000000	-0.061309
531.000000	-0.066934
530.000000	-0.066990
529.000000	-0.094977
528.000000	0.005598
527.000000	-0.067193
526.000000	-0.050465
525.000000	-0.022450
524.000000	-0.089842
523.000000	-0.033761
522.000000	-0.056306
521.000000	0.000000
520.000000	-0.163740
519.000000	-0.011298
518.000000	-0.084904
517.000000	-0.045303
516.000000	-0.039710
515.000000	-0.039768
514.000000	-0.085392
513.000000	-0.119644
512.000000	0.011399
511.000000	-0.011422
510.000000	0.000000
509.000000	-0.085911
508.000000	-0.080390
507.000000	-0.028736
506.000000	-0.023008
505.000000	-0.028848
504.000000	-0.028903
503.000000	0.017383
502.000000	-0.046423
501.000000	-0.017421
500.000000	-0.116421
499.000000	-0.046664
498.000000	0.035080
497.000000	-0.046825
496.000000	-0.064490
495.000000	-0.129305
494.000000	-0.029457
493.000000	-0.005898
492.000000	-0.106484
491.000000	0.065305
490.000000	0.029707
489.000000	-0.155002
488.000000	0.005972
487.000000	-0.017971
486.000000	-0.042045
485.000000	0.036169
484.000000	-0.054345
483.000000	-0.006058
482.000000	-0.085055
481.000000	-0.127963
480.000000	-0.067291
479.000000	-0.055157
478.000000	-0.079921
477.000000	-0.098765
476.000000	-0.179489
475.000000	-0.161350
474.000000	-0.018695
473.000000	0.012518
472.000000	-0.100307
471.000000	0.050327
470.000000	-0.094805
469.000000	-0.025366
468.000000	-0.038200
467.000000	-0.082919
466.000000	-0.140881
465.000000	-0.102960
464.000000	-0.109706
463.000000	0.103493
462.000000	-0.104092
461.000000	-0.117294
460.000000	-0.183811
459.000000	-0.124795
458.000000	-0.250726
457.000000	-0.033062
456.000000	-0.166003
455.000000	-0.140168
454.000000	-0.227410
453.000000	-0.141529
452.000000	-0.202470
451.000000	-0.264031
450.000000	-0.054318
449.000000	-0.136388
448.000000	-0.246592
447.000000	-0.144598
446.000000	-0.296429
445.000000	-0.173720
444.000000	-0.391061
443.000000	0.063176
442.000000	-0.261410
441.000000	-0.085076
440.000000	-0.192198
439.000000	-0.021501
438.000000	-0.144186
437.000000	-0.210435
436.000000	-0.203888
435.000000	-0.212361
434.000000	-0.242754
433.000000	-0.029680
432.000000	-0.440924
431.000000	-0.149813
430.000000	-0.317484
429.000000	-0.334194
428.000000	-0.205871
427.000000	-0.015293
426.000000	-0.200308
425.000000	-0.333178
424.000000	-0.046791
423.000000	0.007843
422.000000	-0.632311
421.000000	-0.514892
420.000000	-0.167211
419.000000	-0.080006
418.000000	-0.080302
417.000000	0.024239
416.000000	0.016230
415.000000	-0.065232
414.000000	-0.032816
413.000000	-0.123640
412.000000	0.033148
411.000000	-0.058299
410.000000	-0.041866
409.000000	-0.084118
408.000000	-0.109964
407.000000	0.008500
406.000000	-0.042742
405.000000	-0.060091
404.000000	-0.060418
403.000000	-0.121465
402.000000	-0.130708
401.000000	0.000000
400.000000	-0.150084
399.000000	-0.017727
398.000000	0.008909
397.000000	-0.215073
396.000000	-0.170986
395.000000	-0.045282
394.000000	-0.045450
393.000000	-0.118993
392.000000	-0.156740
391.000000	-0.065013
390.000000	-0.055991
389.000000	-0.065697
388.000000	-0.122734
387.000000	-0.218486
386.000000	-0.209664
385.000000	-1.765276
384.000000	-1.052632
383.000000	-4.091467
382.000000	-2.122384
381.000000	-0.648379
380.000000	-1.547926
379.000000	-1.706485
378.000000	-2.231506
377.000000	-1.058518
376.000000	-0.810619
375.000000	-0.864700
374.000000	-0.277806
373.000000	-1.454848
372.000000	-1.658692
371.000000	-1.123953
370.000000	-1.145856
369.000000	-1.829268
368.000000	-0.334304
367.000000	-0.459921
366.000000	-0.109361
365.000000	-0.143965
364.000000	-1.827298
363.000000	-0.707229
362.000000	-0.512645
361.000000	-0.103543
360.000000	-1.191567
359.000000	-0.784314
358.000000	-0.871511
357.000000	-0.623823
356.000000	-1.743152
355.000000	-1.525724
354.000000	-0.829580
353.000000	-0.519198
352.000000	-1.551253
351.000000	-0.740022
350.000000	-0.244499
349.000000	-1.601380
348.000000	-2.090636
347.000000	-0.125723
346.000000	-1.484395
345.000000	-1.845765
344.000000	-2.866692
343.000000	-1.180092
342.000000	-1.103231
341.000000	0.235787
340.000000	-1.951539
339.000000	-1.662234
338.000000	-2.871510
337.000000	-1.876676
336.000000	-2.579787
335.000000	-2.805611
334.000000	-1.540769
333.000000	-3.739994
332.000000	-2.826710
331.000000	1.000823
330.000000	-2.287489
329.000000	-1.020551
328.000000	-3.972742
327.000000	-4.475067
326.000000	0.397151
325.000000	-1.266869
324.000000	-0.252066
323.000000	-0.501532
322.000000	-0.395928
321.000000	-0.283206
320.000000	-0.594648
319.000000	-0.486479
318.000000	-0.521664
317.000000	-0.539595
316.000000	-0.455748
315.000000	-1.453359
314.000000	-1.030466
313.000000	-0.452011
312.000000	-1.077553
311.000000	-1.105391
310.000000	-0.122831
309.000000	-0.571429
308.000000	-0.732429
307.000000	-0.487805
306.000000	-0.221134
305.000000	-0.624600
304.000000	-0.823112
303.000000	-0.489876
302.000000	-0.148124
301.000000	-0.884513
300.000000	-0.151007
299.000000	-0.679694
298.000000	-1.001036
297.000000	-0.804055
296.000000	-0.317741
295.000000	-0.997329
294.000000	-0.483178
293.000000	-0.984503
292.000000	-0.918105
291.000000	-1.008969
290.000000	-0.640301
289.000000	-1.418984
288.000000	-0.477008
287.000000	-1.953819
286.000000	-0.635299
285.000000	-2.029743
284.000000	-0.957425
283.000000	-0.673607
282.000000	-1.181592
281.000000	-0.487908
280.000000	-1.732250
279.000000	-0.559501
278.000000	-1.281216
277.000000	-1.139851
276.000000	-0.898532
275.000000	-1.883865
274.000000	0.044753
273.000000	-0.718133
272.000000	-1.088929
271.000000	-1.210322
270.000000	-1.144951
269.000000	0.252351
268.000000	-1.019935
267.000000	-0.509613
266.000000	-0.163284
265.000000	-1.712409
264.000000	-1.444129
263.000000	-0.472144
262.000000	-1.053388
261.000000	-0.602119
260.000000	-0.730816
259.000000	-0.911555
258.000000	-0.421314
257.000000	-0.701227
256.000000	-0.705112
255.000000	-0.458716
254.000000	-0.310238
253.000000	-0.989068
252.000000	-0.079156
251.000000	-0.080171
250.000000	-0.519410
