PE UV       SUBTECH     SPECTRUM    ASCII       PEDS        4.00        
   -1
Sample2738CriPWO 665 air.Sample.asc
11/01/16
04:36:49.00
11/01/16
04:36:49.00
PerkinElmer Method Developer

250.000000
1
Lambda 35
502S12111107
PerkinElmer UV WinLab 6.0.4.0738 / Lambda35 1.27

480
2
1
0
0
Both on
1
1
1
None
0
0
0
0
 
 
0
0
0
0
0
 
 
 
0
 
0
326
0
 
0
 
 
 
0
0
0
 
0
 
 
 
0
 
 
0
0
0
0
0
 
 
 
 
0
0


0
0
#HDR
-1
-1
#GR
nm
%T
1.0
0.0
900.000000
-1.000000
651
8
73.112183
-4.837948
#DATA
900.000000	70.182279
899.000000	70.327685
898.000000	70.207038
897.000000	70.317172
896.000000	70.378926
895.000000	70.250984
894.000000	70.182786
893.000000	70.210454
892.000000	70.296392
891.000000	70.342224
890.000000	70.186521
889.000000	70.373883
888.000000	70.360734
887.000000	70.435742
886.000000	70.324265
885.000000	70.579053
884.000000	70.517485
883.000000	70.590322
882.000000	70.335074
881.000000	70.644306
880.000000	70.532707
879.000000	70.543072
878.000000	70.556525
877.000000	70.401028
876.000000	70.720744
875.000000	70.495624
874.000000	70.713099
873.000000	70.566842
872.000000	70.675007
871.000000	70.720862
870.000000	70.593779
869.000000	70.716200
868.000000	70.633751
867.000000	70.635088
866.000000	70.679797
865.000000	70.612872
864.000000	70.909961
863.000000	70.908412
862.000000	70.689287
861.000000	70.767832
860.000000	70.802059
859.000000	70.641266
858.000000	70.702453
857.000000	71.133909
856.000000	70.702977
855.000000	70.836041
854.000000	70.897262
853.000000	70.883120
852.000000	71.082435
851.000000	70.934539
850.000000	70.942037
849.000000	70.917140
848.000000	70.931568
847.000000	71.058836
846.000000	70.977658
845.000000	71.039032
844.000000	70.949997
843.000000	71.124972
842.000000	71.100943
841.000000	70.857711
840.000000	70.989120
839.000000	71.179402
838.000000	71.013611
837.000000	70.955230
836.000000	71.074243
835.000000	71.302318
834.000000	71.095791
833.000000	71.185687
832.000000	71.221901
831.000000	71.395945
830.000000	71.191537
829.000000	71.238371
828.000000	71.274105
827.000000	71.151171
826.000000	71.424587
825.000000	71.429368
824.000000	71.407069
823.000000	71.250279
822.000000	71.372768
821.000000	71.527275
820.000000	71.414232
819.000000	71.469965
818.000000	71.364117
817.000000	71.437326
816.000000	71.372963
815.000000	71.636141
814.000000	71.372963
813.000000	71.401589
812.000000	71.562743
811.000000	71.478541
810.000000	71.646765
809.000000	71.603020
808.000000	71.551199
807.000000	71.604391
806.000000	71.648400
805.000000	71.539993
804.000000	71.539185
803.000000	71.808481
802.000000	71.840796
801.000000	71.708421
800.000000	71.842410
799.000000	71.818332
798.000000	71.853648
797.000000	71.780762
796.000000	71.793604
795.000000	71.914987
794.000000	71.890438
793.000000	71.865578
792.000000	72.025212
791.000000	72.063336
790.000000	72.010067
789.000000	72.021858
788.000000	72.070547
787.000000	71.970524
786.000000	72.159494
785.000000	72.104804
784.000000	72.144179
783.000000	72.180492
782.000000	72.232798
781.000000	72.200206
780.000000	72.265625
779.000000	72.196920
778.000000	72.249946
777.000000	72.270411
776.000000	72.247197
775.000000	72.292546
774.000000	72.346520
773.000000	72.346625
772.000000	72.371612
771.000000	72.297588
770.000000	72.431240
769.000000	72.456442
768.000000	72.474055
767.000000	72.393791
766.000000	72.476769
765.000000	72.425997
764.000000	72.517569
763.000000	72.477753
762.000000	72.501070
761.000000	72.662487
760.000000	72.570969
759.000000	72.594612
758.000000	72.590892
757.000000	72.644328
756.000000	72.565333
755.000000	72.711765
754.000000	72.650801
753.000000	72.636789
752.000000	72.686639
751.000000	72.687131
750.000000	72.739348
749.000000	72.724374
748.000000	72.741276
747.000000	72.808881
746.000000	72.845079
745.000000	72.829548
744.000000	72.810180
743.000000	72.848806
742.000000	72.840554
741.000000	72.878121
740.000000	72.831328
739.000000	72.894472
738.000000	72.856765
737.000000	72.853362
736.000000	72.949214
735.000000	72.914903
734.000000	73.032934
733.000000	72.936071
732.000000	73.024191
731.000000	72.943666
730.000000	72.947524
729.000000	73.027882
728.000000	73.014445
727.000000	73.015873
726.000000	73.025028
725.000000	73.062672
724.000000	73.038645
723.000000	73.012431
722.000000	73.018309
721.000000	72.991851
720.000000	73.057571
719.000000	73.020916
718.000000	73.112183
717.000000	73.003762
716.000000	73.077127
715.000000	72.987866
714.000000	73.007794
713.000000	73.021430
712.000000	72.949037
711.000000	73.046294
710.000000	72.893132
709.000000	72.892334
708.000000	72.867229
707.000000	72.775564
706.000000	72.818578
705.000000	72.789622
704.000000	72.619997
703.000000	72.667801
702.000000	72.588104
701.000000	72.480187
700.000000	72.348122
699.000000	72.289670
698.000000	72.148866
697.000000	72.089926
696.000000	71.836539
695.000000	71.713190
694.000000	71.506265
693.000000	71.340195
692.000000	71.082667
691.000000	70.910061
690.000000	70.591691
689.000000	70.315756
688.000000	69.915616
687.000000	69.538017
686.000000	69.087702
685.000000	68.663102
684.000000	68.196651
683.000000	67.367747
682.000000	66.857296
681.000000	66.045394
680.000000	65.282010
679.000000	64.388835
678.000000	63.411765
677.000000	62.204893
676.000000	61.066296
675.000000	59.819232
674.000000	58.363199
673.000000	56.605789
672.000000	54.822335
671.000000	52.846918
670.000000	50.860870
669.000000	48.538762
668.000000	46.153846
667.000000	43.589607
666.000000	40.829508
665.000000	37.959402
664.000000	34.903343
663.000000	31.849717
662.000000	28.707265
661.000000	25.657860
660.000000	22.758326
659.000000	19.694787
658.000000	16.863164
657.000000	14.227837
656.000000	11.904508
655.000000	9.722962
654.000000	7.723447
653.000000	6.150487
652.000000	4.748990
651.000000	3.655227
650.000000	2.724274
649.000000	1.957551
648.000000	1.452823
647.000000	1.031750
646.000000	0.723828
645.000000	0.473153
644.000000	0.403933
643.000000	0.175383
642.000000	0.185982
641.000000	0.111554
640.000000	0.042465
639.000000	0.079647
638.000000	0.005304
637.000000	0.053034
636.000000	-0.037173
635.000000	-0.031844
634.000000	-0.005307
633.000000	-0.005306
632.000000	-0.084926
631.000000	-0.058355
630.000000	-0.021217
629.000000	-0.042438
628.000000	-0.021227
627.000000	-0.021212
626.000000	-0.074294
625.000000	-0.106084
624.000000	-0.079546
623.000000	-0.031852
622.000000	-0.069017
621.000000	-0.084890
620.000000	0.000000
619.000000	-0.005306
618.000000	0.005306
617.000000	-0.084935
616.000000	-0.068929
615.000000	-0.010615
614.000000	-0.021235
613.000000	-0.111518
612.000000	-0.010613
611.000000	-0.010605
610.000000	-0.074215
609.000000	0.021227
608.000000	-0.037141
607.000000	0.000000
606.000000	-0.084885
605.000000	-0.074330
604.000000	-0.037159
603.000000	0.015935
602.000000	-0.031859
601.000000	0.005312
600.000000	-0.021242
599.000000	0.031895
598.000000	0.000000
597.000000	-0.058495
596.000000	-0.021272
595.000000	-0.042628
594.000000	0.010656
593.000000	-0.048005
592.000000	-0.021360
591.000000	-0.042730
590.000000	-0.005346
589.000000	0.000000
588.000000	-0.085763
587.000000	0.048304
586.000000	-0.064416
585.000000	0.016120
584.000000	-0.037689
583.000000	-0.026945
582.000000	0.016189
581.000000	0.048607
580.000000	-0.081064
579.000000	-0.064889
578.000000	-0.048738
577.000000	-0.070396
576.000000	-0.016261
575.000000	-0.070445
574.000000	-0.010850
573.000000	0.027149
572.000000	-0.092291
571.000000	0.000000
570.000000	-0.081633
569.000000	-0.098077
568.000000	-0.125225
567.000000	-0.059942
566.000000	-0.016366
565.000000	0.016368
564.000000	-0.038193
563.000000	-0.065545
562.000000	-0.087470
561.000000	-0.038295
560.000000	-0.060215
559.000000	-0.131413
558.000000	-0.065811
557.000000	0.005491
556.000000	-0.087820
555.000000	-0.049456
554.000000	-0.016491
553.000000	0.000000
552.000000	0.005496
551.000000	-0.049505
550.000000	-0.038563
549.000000	0.000000
548.000000	-0.011032
547.000000	-0.060703
546.000000	-0.066214
545.000000	-0.082786
544.000000	0.016559
543.000000	-0.038680
542.000000	-0.116073
541.000000	-0.033177
540.000000	-0.011071
539.000000	0.000000
538.000000	-0.005552
537.000000	-0.055485
536.000000	-0.099967
535.000000	-0.138889
534.000000	-0.072351
533.000000	-0.077925
532.000000	-0.022294
531.000000	-0.044623
530.000000	-0.078156
529.000000	0.022348
528.000000	-0.016794
527.000000	0.005599
526.000000	-0.089716
525.000000	-0.011225
524.000000	-0.056151
523.000000	-0.163178
522.000000	0.056306
521.000000	0.000000
520.000000	-0.067755
519.000000	-0.084736
518.000000	-0.056603
517.000000	0.005663
516.000000	-0.034037
515.000000	-0.028406
514.000000	-0.039850
513.000000	-0.056974
512.000000	-0.085490
511.000000	-0.057110
510.000000	0.005718
509.000000	-0.085911
508.000000	-0.086133
507.000000	0.022989
506.000000	-0.115042
505.000000	-0.086545
504.000000	-0.052026
503.000000	-0.075327
502.000000	-0.133465
501.000000	-0.011614
500.000000	0.005821
499.000000	-0.075828
498.000000	0.035080
497.000000	-0.023412
496.000000	-0.117254
495.000000	-0.070530
494.000000	-0.053022
493.000000	-0.005898
492.000000	-0.106484
491.000000	-0.100926
490.000000	0.077238
489.000000	-0.017885
488.000000	-0.077635
487.000000	-0.143764
486.000000	-0.120127
485.000000	-0.018084
484.000000	-0.078498
483.000000	-0.048464
482.000000	-0.054678
481.000000	-0.042654
480.000000	-0.103995
479.000000	-0.085800
478.000000	-0.043035
477.000000	0.012346
476.000000	-0.037136
475.000000	-0.105498
474.000000	0.056085
473.000000	0.012518
472.000000	-0.119115
471.000000	-0.113236
470.000000	-0.151688
469.000000	-0.088782
468.000000	-0.044566
467.000000	-0.153081
466.000000	-0.051230
465.000000	-0.032175
464.000000	-0.109706
463.000000	-0.058215
462.000000	-0.117104
461.000000	-0.084713
460.000000	-0.065647
459.000000	-0.045977
458.000000	-0.092373
457.000000	-0.178536
456.000000	-0.059761
455.000000	-0.166867
454.000000	-0.046820
453.000000	0.026958
452.000000	-0.047243
451.000000	0.013540
450.000000	-0.142586
449.000000	-0.102291
448.000000	-0.164395
447.000000	-0.192798
446.000000	-0.117193
445.000000	-0.229310
444.000000	-0.083799
443.000000	-0.035098
442.000000	-0.035326
441.000000	-0.233960
440.000000	-0.106777
439.000000	-0.236508
438.000000	-0.136976
437.000000	-0.152384
436.000000	-0.138353
435.000000	-0.278266
434.000000	-0.456084
433.000000	-0.059360
432.000000	0.007473
431.000000	-0.426966
430.000000	-0.181420
429.000000	-0.394957
428.000000	-0.160122
427.000000	-0.527604
426.000000	-0.138675
425.000000	-0.441655
424.000000	-0.249552
423.000000	-0.345071
422.000000	-0.513753
421.000000	-0.308935
420.000000	0.023887
419.000000	-0.008001
418.000000	0.016060
417.000000	0.016159
416.000000	-0.146068
415.000000	-0.048924
414.000000	-0.049225
413.000000	-0.008243
412.000000	-0.041435
411.000000	-0.191555
410.000000	-0.108850
409.000000	-0.025236
408.000000	-0.076129
407.000000	0.008500
406.000000	-0.042742
405.000000	-0.034338
404.000000	-0.129467
403.000000	-0.052056
402.000000	-0.209132
401.000000	-0.105125
400.000000	-0.132427
399.000000	-0.088637
398.000000	-0.124733
397.000000	-0.179228
396.000000	0.053996
395.000000	-0.108676
394.000000	-0.099991
393.000000	-0.045767
392.000000	-0.046100
391.000000	-0.241479
390.000000	-0.102650
389.000000	-0.140779
388.000000	-0.207704
387.000000	0.000000
386.000000	-0.076241
385.000000	-1.551891
384.000000	-1.908510
383.000000	-4.837948
382.000000	-2.737281
381.000000	0.618454
380.000000	-0.744195
379.000000	-1.184501
378.000000	-0.906868
377.000000	-1.018574
376.000000	-1.469247
375.000000	-1.403866
374.000000	0.452721
373.000000	-1.725034
372.000000	-0.797448
371.000000	-0.328703
370.000000	0.117798
369.000000	-0.962773
368.000000	-0.506848
367.000000	-1.675427
366.000000	-0.382765
365.000000	-0.143965
364.000000	-1.571031
363.000000	-0.224517
362.000000	-0.569606
361.000000	-0.724804
360.000000	-1.787351
359.000000	-1.430219
358.000000	-1.130609
357.000000	-1.059322
356.000000	-0.320171
355.000000	-0.484920
354.000000	-0.841432
353.000000	-1.569669
352.000000	0.347481
351.000000	-1.577096
350.000000	-1.466993
349.000000	-1.096329
348.000000	0.312969
347.000000	-1.244657
346.000000	-1.014971
345.000000	-1.365360
344.000000	-1.054120
343.000000	-1.847101
342.000000	-2.101392
341.000000	-0.288184
340.000000	-0.916830
339.000000	0.265957
338.000000	-3.850734
337.000000	-1.635389
336.000000	-1.675532
335.000000	-2.912492
334.000000	-2.808836
333.000000	0.427822
332.000000	-1.638673
331.000000	-1.946806
330.000000	-2.442813
329.000000	-1.747519
328.000000	-3.537770
327.000000	-0.312544
326.000000	-0.602575
325.000000	-1.982925
324.000000	-1.596415
323.000000	-0.780162
322.000000	-2.007919
321.000000	-1.260266
320.000000	-1.019397
319.000000	-0.529403
318.000000	-1.115780
317.000000	-2.479218
316.000000	-1.499559
315.000000	-1.379208
314.000000	-0.134409
313.000000	-1.280699
312.000000	-1.138261
311.000000	-1.029679
310.000000	-0.875173
309.000000	-1.081081
308.000000	-0.327256
307.000000	-0.456334
306.000000	-0.331701
305.000000	-1.105061
304.000000	-1.065203
303.000000	-1.926845
302.000000	-0.296248
301.000000	-1.068091
300.000000	-1.140940
299.000000	0.101954
298.000000	-0.966517
297.000000	-1.345919
296.000000	-1.218005
295.000000	-1.549421
294.000000	-0.876879
293.000000	-1.458523
292.000000	-1.322071
291.000000	-1.233184
290.000000	-0.847458
289.000000	-0.997124
288.000000	-1.888952
287.000000	-0.671008
286.000000	-1.230891
285.000000	-0.844051
284.000000	-0.244449
283.000000	-1.245152
282.000000	-0.621891
281.000000	-0.593975
280.000000	-1.390077
279.000000	-0.451904
278.000000	-0.521173
277.000000	-1.753617
276.000000	-0.745124
275.000000	-0.842199
274.000000	-1.096442
273.000000	-0.044883
272.000000	-1.225045
271.000000	-1.438685
270.000000	-1.282345
269.000000	-1.468227
268.000000	-0.741771
267.000000	-0.787584
266.000000	-0.723116
265.000000	-1.032137
264.000000	-0.994318
263.000000	-0.047214
262.000000	-0.622456
261.000000	-0.529865
260.000000	-1.218027
259.000000	-1.108647
258.000000	-0.718711
257.000000	-0.250438
256.000000	-0.528834
255.000000	-0.535168
254.000000	-0.491210
253.000000	-0.416450
252.000000	-1.081794
251.000000	-0.721539
250.000000	-1.038819
