PE UV       SUBTECH     SPECTRUM    ASCII       PEDS        4.00        
   -1
Sample400 reverse.Sample.asc
11/01/16
04:46:36.00
11/01/16
04:46:36.00
PerkinElmer Method Developer

250.000000
1
Lambda 35
502S12111107
PerkinElmer UV WinLab 6.0.4.0738 / Lambda35 1.27

480
2
1
0
0
Both on
1
1
1
None
0
0
0
0
 
 
0
0
0
0
0
 
 
 
0
 
0
326
0
 
0
 
 
 
0
0
0
 
0
 
 
 
0
 
 
0
0
0
0
0
 
 
 
 
0
0


0
0
#HDR
-1
-1
#GR
nm
%T
1.0
0.0
900.000000
-1.000000
651
8
107.584850
-1.424814
#DATA
900.000000	77.760990
899.000000	78.258534
898.000000	79.036758
897.000000	79.994117
896.000000	81.505873
895.000000	82.859252
894.000000	84.347441
893.000000	86.152554
892.000000	88.159199
891.000000	90.130631
890.000000	91.867695
889.000000	93.635501
888.000000	94.926702
887.000000	96.434839
886.000000	96.923000
885.000000	97.205438
884.000000	97.058824
883.000000	96.123638
882.000000	94.352917
881.000000	92.853502
880.000000	90.284723
879.000000	87.654195
878.000000	85.018996
877.000000	81.804627
876.000000	78.770344
875.000000	75.860997
874.000000	72.949969
873.000000	70.223931
872.000000	67.688298
871.000000	65.625654
870.000000	63.415017
869.000000	61.867479
868.000000	60.453732
867.000000	59.341703
866.000000	58.603346
865.000000	58.053229
864.000000	58.020623
863.000000	57.975264
862.000000	58.301323
861.000000	58.966955
860.000000	60.047180
859.000000	60.955192
858.000000	62.505379
857.000000	64.368251
856.000000	66.120927
855.000000	68.388564
854.000000	70.561128
853.000000	72.729741
852.000000	74.986388
851.000000	76.881603
850.000000	78.714114
849.000000	80.137735
848.000000	80.734096
847.000000	81.230466
846.000000	80.369984
845.000000	79.169874
844.000000	77.496012
843.000000	75.485758
842.000000	72.479188
841.000000	69.544100
840.000000	66.791848
839.000000	64.025471
838.000000	60.960496
837.000000	58.471853
836.000000	56.142493
835.000000	54.165972
834.000000	52.315561
833.000000	50.794533
832.000000	49.660583
831.000000	48.969474
830.000000	48.207127
829.000000	47.963902
828.000000	47.932226
827.000000	47.994214
826.000000	48.644578
825.000000	49.280856
824.000000	50.301037
823.000000	51.270337
822.000000	52.639509
821.000000	54.176185
820.000000	55.565470
819.000000	57.060069
818.000000	58.363505
817.000000	59.565460
816.000000	60.106768
815.000000	60.602349
814.000000	60.273592
813.000000	59.480029
812.000000	58.208292
811.000000	56.504358
810.000000	54.423771
809.000000	52.031528
808.000000	49.454505
807.000000	47.122741
806.000000	44.708292
805.000000	42.471512
804.000000	40.523201
803.000000	38.812407
802.000000	37.401879
801.000000	36.000441
800.000000	34.966617
799.000000	34.167448
798.000000	33.700683
797.000000	33.127889
796.000000	32.965161
795.000000	33.120984
794.000000	33.351630
793.000000	33.726221
792.000000	34.376542
791.000000	35.141354
790.000000	36.076157
789.000000	37.071038
788.000000	38.309490
787.000000	39.405022
786.000000	40.577101
785.000000	41.469659
784.000000	42.453447
783.000000	42.858698
782.000000	43.285287
781.000000	43.048694
780.000000	42.599826
779.000000	41.856430
778.000000	40.898243
777.000000	39.710506
776.000000	38.390294
775.000000	37.157849
774.000000	35.894942
773.000000	34.786597
772.000000	33.723123
771.000000	32.832687
770.000000	32.143818
769.000000	31.544418
768.000000	31.128677
767.000000	30.962995
766.000000	30.923350
765.000000	30.936293
764.000000	31.248324
763.000000	31.660770
762.000000	32.058005
761.000000	32.829663
760.000000	33.283342
759.000000	33.841137
758.000000	34.344135
757.000000	34.681464
756.000000	34.853333
755.000000	34.868596
754.000000	34.573817
753.000000	33.936555
752.000000	33.193210
751.000000	32.292387
750.000000	31.160344
749.000000	30.044104
748.000000	28.931853
747.000000	27.828535
746.000000	26.889373
745.000000	26.061346
744.000000	25.318134
743.000000	24.748011
742.000000	24.370327
741.000000	24.031172
740.000000	23.925600
739.000000	23.973075
738.000000	24.077310
737.000000	24.340921
736.000000	24.789493
735.000000	25.206393
734.000000	25.781002
733.000000	26.338908
732.000000	26.832883
731.000000	27.357842
730.000000	27.734871
729.000000	28.062007
728.000000	28.181385
727.000000	28.211640
726.000000	28.017355
725.000000	27.736608
724.000000	27.358391
723.000000	26.908225
722.000000	26.441952
721.000000	26.018626
720.000000	25.745458
719.000000	25.427588
718.000000	25.361666
717.000000	25.263604
716.000000	25.417440
715.000000	25.608011
714.000000	25.953025
713.000000	26.352642
712.000000	26.695657
711.000000	27.213846
710.000000	27.478123
709.000000	27.728817
708.000000	27.679567
707.000000	27.569721
706.000000	27.239877
705.000000	26.678718
704.000000	25.912933
703.000000	25.039889
702.000000	24.100356
701.000000	23.296633
700.000000	22.401319
699.000000	21.677316
698.000000	21.057395
697.000000	20.574290
696.000000	20.235495
695.000000	20.088430
694.000000	20.181285
693.000000	20.318916
692.000000	20.693333
691.000000	21.297038
690.000000	21.921393
689.000000	22.674574
688.000000	23.397778
687.000000	24.227355
686.000000	24.889103
685.000000	25.411765
684.000000	25.779704
683.000000	25.970213
682.000000	25.756280
681.000000	25.441923
680.000000	25.212510
679.000000	24.649770
678.000000	24.224599
677.000000	23.763487
676.000000	23.484160
675.000000	23.547973
674.000000	23.589195
673.000000	23.827833
672.000000	24.386855
671.000000	25.029377
670.000000	26.039996
669.000000	26.793824
668.000000	27.802427
667.000000	28.705090
666.000000	29.251628
665.000000	29.513889
664.000000	29.370928
663.000000	28.695699
662.000000	27.799145
661.000000	26.517214
660.000000	25.256191
659.000000	23.984846
658.000000	22.827421
657.000000	21.760222
656.000000	20.984760
655.000000	20.436867
654.000000	20.091616
653.000000	20.246019
652.000000	20.506275
651.000000	21.175845
650.000000	22.108120
649.000000	23.421459
648.000000	24.926827
647.000000	26.564910
646.000000	28.064293
645.000000	28.681552
644.000000	27.860749
643.000000	25.276361
642.000000	21.690844
641.000000	17.572377
640.000000	14.029407
639.000000	11.145330
638.000000	9.097178
637.000000	7.504243
636.000000	6.558335
635.000000	5.843329
634.000000	5.460624
633.000000	5.369270
632.000000	5.509554
631.000000	5.633952
630.000000	5.336021
629.000000	4.434778
628.000000	3.003609
627.000000	1.776529
626.000000	1.050732
625.000000	0.604678
624.000000	0.360609
623.000000	0.185805
622.000000	0.159269
621.000000	0.058362
620.000000	0.111435
619.000000	0.026528
618.000000	0.042449
617.000000	0.053084
616.000000	-0.010604
615.000000	0.079609
614.000000	0.021235
613.000000	0.074345
612.000000	0.021226
611.000000	0.021210
610.000000	0.015903
609.000000	0.037147
608.000000	-0.026529
607.000000	0.047750
606.000000	-0.042443
605.000000	0.026546
604.000000	0.042467
603.000000	0.005312
602.000000	-0.010620
601.000000	0.005312
600.000000	0.095587
599.000000	0.047842
598.000000	0.069090
597.000000	0.047860
596.000000	-0.015954
595.000000	0.031971
594.000000	-0.037296
593.000000	0.048005
592.000000	0.010680
591.000000	0.010683
590.000000	0.005346
589.000000	0.016044
588.000000	0.026801
587.000000	0.037570
586.000000	0.000000
585.000000	-0.005373
584.000000	0.016152
583.000000	0.016167
582.000000	0.005396
581.000000	0.064809
580.000000	-0.005404
579.000000	0.043260
578.000000	-0.048738
577.000000	-0.032490
576.000000	-0.005420
575.000000	0.037932
574.000000	-0.032550
573.000000	-0.005430
572.000000	-0.005429
571.000000	-0.010873
570.000000	0.016327
569.000000	0.027244
568.000000	-0.016334
567.000000	0.000000
566.000000	-0.120015
565.000000	-0.043649
564.000000	0.000000
563.000000	0.005462
562.000000	-0.049202
561.000000	-0.186006
560.000000	-0.043792
559.000000	-0.082133
558.000000	0.027421
557.000000	0.032944
556.000000	-0.043910
555.000000	0.016485
554.000000	0.016491
553.000000	0.104476
552.000000	-0.065956
551.000000	-0.055006
550.000000	-0.022036
549.000000	0.016527
548.000000	-0.044128
547.000000	-0.005518
546.000000	-0.044143
545.000000	0.082786
544.000000	-0.038638
543.000000	-0.082887
542.000000	0.005527
541.000000	-0.066353
540.000000	0.005536
539.000000	0.055457
538.000000	-0.111031
537.000000	-0.077679
536.000000	-0.027769
535.000000	0.061111
534.000000	-0.022262
533.000000	-0.061227
532.000000	-0.083603
531.000000	0.044623
530.000000	-0.078156
529.000000	-0.022348
528.000000	0.000000
527.000000	-0.050395
526.000000	-0.050465
525.000000	-0.011225
524.000000	0.011230
523.000000	-0.056268
522.000000	-0.016892
521.000000	-0.039486
520.000000	0.016939
519.000000	0.056491
518.000000	-0.045282
517.000000	0.022651
516.000000	0.000000
515.000000	-0.045449
514.000000	0.028464
513.000000	-0.017092
512.000000	-0.011399
511.000000	0.045688
510.000000	0.068618
509.000000	0.017182
508.000000	-0.063164
507.000000	-0.011494
506.000000	-0.080529
505.000000	-0.028848
504.000000	-0.028903
503.000000	-0.028972
502.000000	-0.087042
501.000000	0.011614
500.000000	-0.029105
499.000000	-0.029165
498.000000	0.017540
497.000000	-0.023412
496.000000	-0.023451
495.000000	-0.099918
494.000000	-0.005891
493.000000	-0.005898
492.000000	-0.035495
491.000000	0.047495
490.000000	0.023766
489.000000	0.053654
488.000000	-0.017916
487.000000	0.059902
486.000000	-0.084089
485.000000	0.042197
484.000000	0.000000
483.000000	-0.030290
482.000000	0.042527
481.000000	-0.054841
480.000000	0.055056
479.000000	-0.091929
478.000000	-0.030739
477.000000	-0.104938
476.000000	0.080460
475.000000	0.080675
474.000000	0.056085
473.000000	-0.012518
472.000000	-0.094038
471.000000	0.069200
470.000000	0.012641
469.000000	-0.012683
468.000000	0.089132
467.000000	0.031892
466.000000	-0.019211
465.000000	-0.070785
464.000000	-0.090346
463.000000	-0.012937
462.000000	-0.019517
461.000000	-0.006516
460.000000	0.059082
459.000000	-0.013136
458.000000	-0.092373
457.000000	0.112412
456.000000	-0.112882
455.000000	0.046723
454.000000	-0.173901
453.000000	-0.208923
452.000000	0.053992
451.000000	-0.020310
450.000000	-0.006790
449.000000	-0.061375
448.000000	-0.013700
447.000000	0.089513
446.000000	-0.117193
445.000000	-0.138976
444.000000	-0.090782
443.000000	-0.133371
442.000000	-0.162498
441.000000	-0.148883
440.000000	-0.128132
439.000000	-0.114671
438.000000	-0.057674
437.000000	0.043538
436.000000	-0.029127
435.000000	-0.029291
434.000000	-0.110343
433.000000	-0.126141
432.000000	0.000000
431.000000	0.037453
430.000000	0.098269
429.000000	-0.273432
428.000000	-0.083873
427.000000	0.000000
426.000000	-0.200308
425.000000	-0.069735
424.000000	0.031194
423.000000	-0.235276
422.000000	-0.023712
421.000000	-0.023764
420.000000	-0.111474
419.000000	0.040003
418.000000	-0.008030
417.000000	-0.088875
416.000000	0.113609
415.000000	0.016308
414.000000	-0.041021
413.000000	-0.098912
412.000000	-0.008287
411.000000	0.024985
410.000000	-0.066985
409.000000	0.092530
408.000000	-0.042294
407.000000	0.135997
406.000000	0.094033
405.000000	0.025753
404.000000	0.043156
403.000000	0.164845
402.000000	0.226560
401.000000	0.350416
400.000000	0.971131
399.000000	2.774331
398.000000	12.847470
397.000000	54.010216
396.000000	99.991001
395.000000	106.303206
394.000000	105.554041
393.000000	105.913043
392.000000	106.361792
391.000000	106.278443
390.000000	105.561777
389.000000	104.814641
388.000000	104.824396
387.000000	104.702194
386.000000	103.993138
385.000000	102.861300
384.000000	107.584850
383.000000	100.340168
382.000000	104.800159
381.000000	104.448878
380.000000	102.768406
379.000000	101.897209
378.000000	104.758508
377.000000	102.077092
376.000000	102.310264
375.000000	101.332655
374.000000	101.666838
373.000000	102.452458
372.000000	101.913876
371.000000	101.081540
370.000000	101.360034
369.000000	103.134360
368.000000	101.304864
367.000000	101.204555
366.000000	99.015748
365.000000	100.077519
364.000000	100.022284
363.000000	99.786709
362.000000	100.444293
361.000000	100.138058
360.000000	99.220898
359.000000	100.034602
358.000000	100.647745
357.000000	99.293785
356.000000	99.466382
355.000000	99.337670
354.000000	99.241526
353.000000	98.997827
352.000000	100.310251
351.000000	98.301589
350.000000	98.374083
349.000000	98.817443
348.000000	98.647972
347.000000	98.415891
346.000000	97.931997
345.000000	96.675095
344.000000	99.164417
343.000000	98.319651
342.000000	100.696086
341.000000	98.297092
340.000000	98.480681
339.000000	99.308511
338.000000	99.603017
337.000000	100.750670
336.000000	94.986702
335.000000	96.740147
334.000000	99.290974
333.000000	100.759039
332.000000	98.484228
331.000000	100.425007
330.000000	101.059023
329.000000	97.315812
328.000000	96.317239
327.000000	96.490979
326.000000	96.603670
325.000000	95.042688
324.000000	95.994959
323.000000	95.583728
322.000000	95.559955
321.000000	94.803172
320.000000	93.812827
319.000000	93.360996
318.000000	94.290683
317.000000	91.658160
316.000000	92.105263
315.000000	92.006525
314.000000	90.098566
313.000000	88.985988
312.000000	89.133404
311.000000	85.735918
310.000000	83.985874
309.000000	83.799228
308.000000	80.364656
307.000000	77.057435
306.000000	75.691044
305.000000	74.439462
304.000000	70.142027
303.000000	64.614631
302.000000	59.002633
301.000000	58.094126
300.000000	54.395973
299.000000	49.940527
298.000000	45.253711
297.000000	38.210103
296.000000	33.415711
295.000000	26.838825
294.000000	21.062992
293.000000	14.585232
292.000000	10.980536
291.000000	7.249626
290.000000	3.898305
289.000000	2.742090
288.000000	1.335623
287.000000	1.855141
286.000000	0.138972
285.000000	0.442122
284.000000	0.366673
283.000000	-0.612370
282.000000	0.041459
281.000000	-1.039457
280.000000	-0.470488
279.000000	-0.774693
278.000000	0.260586
277.000000	-1.424814
276.000000	-0.219154
275.000000	0.465426
274.000000	0.223764
273.000000	-0.336625
272.000000	0.499093
271.000000	-0.091345
270.000000	-1.190749
269.000000	-0.321175
268.000000	-0.486787
267.000000	-0.532777
266.000000	-0.046653
265.000000	-1.008679
264.000000	-1.065341
263.000000	-0.448536
262.000000	-1.005506
261.000000	-0.529865
260.000000	-0.633374
259.000000	-0.172456
258.000000	-0.545229
257.000000	0.025044
256.000000	-0.302191
255.000000	-0.331295
254.000000	-0.232678
253.000000	-0.546590
252.000000	-0.791557
251.000000	0.160342
250.000000	-0.218699
