PE UV       SUBTECH     SPECTRUM    ASCII       PEDS        4.00        
   -1
Sample665.Sample.asc
11/01/16
03:36:21.00
11/01/16
03:36:21.00
PerkinElmer Method Developer

250.000000
1
Lambda 35
502S12111107
PerkinElmer UV WinLab 6.0.4.0738 / Lambda35 1.27

480
2
1
0
0
Both on
1
1
1
None
0
0
0
0
 
 
0
0
0
0
0
 
 
 
0
 
0
326
0
 
0
 
 
 
0
0
0
 
0
 
 
 
0
 
 
0
0
0
0
0
 
 
 
 
0
0


0
0
#HDR
-1
-1
#GR
nm
%T
1.0
0.0
900.000000
-1.000000
651
8
90.400297
-3.764739
#DATA
900.000000	87.757091
899.000000	87.781413
898.000000	87.778376
897.000000	87.734693
896.000000	87.821300
895.000000	87.785433
894.000000	87.623787
893.000000	87.792708
892.000000	87.916336
891.000000	87.925297
890.000000	87.893559
889.000000	87.984825
888.000000	88.027218
887.000000	87.940631
886.000000	87.887762
885.000000	87.719033
884.000000	88.134223
883.000000	88.077021
882.000000	87.965732
881.000000	88.163931
880.000000	87.932442
879.000000	88.027845
878.000000	88.130198
877.000000	87.958869
876.000000	88.132266
875.000000	88.114351
874.000000	88.151339
873.000000	88.029303
872.000000	88.115715
871.000000	88.198368
870.000000	88.051105
869.000000	88.024802
868.000000	88.267186
867.000000	88.031438
866.000000	88.294155
865.000000	88.230304
864.000000	88.136494
863.000000	88.277002
862.000000	88.102860
861.000000	88.209817
860.000000	88.210380
859.000000	88.183526
858.000000	88.231497
857.000000	88.439525
856.000000	88.285514
855.000000	88.277020
854.000000	88.289509
853.000000	88.398870
852.000000	88.391593
851.000000	88.481647
850.000000	88.287305
849.000000	88.489287
848.000000	88.271976
847.000000	88.364314
846.000000	88.444859
845.000000	88.526663
844.000000	88.255680
843.000000	88.672996
842.000000	88.417223
841.000000	88.464510
840.000000	88.429889
839.000000	88.527132
838.000000	88.441961
837.000000	88.541667
836.000000	88.447453
835.000000	88.599855
834.000000	88.625118
833.000000	88.620958
832.000000	88.604496
831.000000	88.747772
830.000000	88.630290
829.000000	88.630160
828.000000	88.652324
827.000000	88.588438
826.000000	88.721553
825.000000	88.811462
824.000000	88.688817
823.000000	88.622688
822.000000	88.688616
821.000000	88.839360
820.000000	88.857908
819.000000	88.944612
818.000000	88.826380
817.000000	88.880223
816.000000	88.644831
815.000000	88.999610
814.000000	88.856142
813.000000	88.717293
812.000000	88.785151
811.000000	88.867914
810.000000	89.036379
809.000000	89.043073
808.000000	88.896273
807.000000	88.928928
806.000000	88.896269
805.000000	88.898108
804.000000	89.126708
803.000000	89.251949
802.000000	89.082366
801.000000	89.189935
800.000000	89.107764
799.000000	89.252053
798.000000	89.238484
797.000000	89.076601
796.000000	89.103198
795.000000	89.219617
794.000000	89.213964
793.000000	89.205636
792.000000	89.339545
791.000000	89.299803
790.000000	89.325966
789.000000	89.333333
788.000000	89.346948
787.000000	89.568777
786.000000	89.439808
785.000000	89.416058
784.000000	89.469672
783.000000	89.505770
782.000000	89.589339
781.000000	89.495684
780.000000	89.485677
779.000000	89.503362
778.000000	89.580169
777.000000	89.564133
776.000000	89.589991
775.000000	89.581305
774.000000	89.694120
773.000000	89.683268
772.000000	89.594223
771.000000	89.642550
770.000000	89.687281
769.000000	89.685954
768.000000	89.788676
767.000000	89.736291
766.000000	89.826503
765.000000	89.832690
764.000000	89.732310
763.000000	89.744827
762.000000	89.736729
761.000000	89.942667
760.000000	89.892876
759.000000	89.865298
758.000000	89.936469
757.000000	89.862341
756.000000	89.925333
755.000000	90.010128
754.000000	89.937710
753.000000	89.977645
752.000000	89.996275
751.000000	90.062244
750.000000	89.953246
749.000000	90.079175
748.000000	90.019653
747.000000	90.082864
746.000000	90.132243
745.000000	90.145404
744.000000	90.111347
743.000000	90.201592
742.000000	90.238083
741.000000	90.245454
740.000000	90.196598
739.000000	90.321726
738.000000	90.187980
737.000000	90.232927
736.000000	90.261081
735.000000	90.236029
734.000000	90.400297
733.000000	90.251905
732.000000	90.302260
731.000000	90.272415
730.000000	90.245451
729.000000	90.286228
728.000000	90.332822
727.000000	90.349206
726.000000	90.364570
725.000000	90.345120
724.000000	90.365273
723.000000	90.235387
722.000000	90.305852
721.000000	90.279395
720.000000	90.334198
719.000000	90.283294
718.000000	90.355572
717.000000	90.335400
716.000000	90.315399
715.000000	90.229428
714.000000	90.260326
713.000000	90.260980
712.000000	90.194623
711.000000	90.210236
710.000000	90.076903
709.000000	90.125292
708.000000	90.067421
707.000000	90.018592
706.000000	89.993623
705.000000	89.903769
704.000000	89.820869
703.000000	89.783002
702.000000	89.608250
701.000000	89.569704
700.000000	89.435046
699.000000	89.366347
698.000000	89.197104
697.000000	89.094880
696.000000	88.875273
695.000000	88.679949
694.000000	88.520395
693.000000	88.277959
692.000000	87.952000
691.000000	87.680811
690.000000	87.402542
689.000000	86.995779
688.000000	86.541337
687.000000	86.097744
686.000000	85.543263
685.000000	85.026738
684.000000	84.470123
683.000000	83.569103
682.000000	83.014431
681.000000	82.077437
680.000000	81.202887
679.000000	80.066303
678.000000	78.855615
677.000000	77.368871
676.000000	75.938886
675.000000	74.291368
674.000000	72.580904
673.000000	70.767916
672.000000	68.522575
671.000000	66.130755
670.000000	63.757887
669.000000	60.912539
668.000000	57.967606
667.000000	54.854577
666.000000	51.398527
665.000000	47.943376
664.000000	44.253978
663.000000	40.425873
662.000000	36.666667
661.000000	32.735522
660.000000	28.906917
659.000000	25.212102
658.000000	21.643105
657.000000	18.369849
656.000000	15.362890
655.000000	12.583910
654.000000	10.029828
653.000000	8.003621
652.000000	6.222080
651.000000	4.745943
650.000000	3.591572
649.000000	2.611841
648.000000	1.958384
647.000000	1.441259
646.000000	1.000585
645.000000	0.733652
644.000000	0.526176
643.000000	0.345451
642.000000	0.276316
641.000000	0.217795
640.000000	0.148628
639.000000	0.026549
638.000000	-0.037131
637.000000	-0.010607
636.000000	-0.010621
635.000000	0.026536
634.000000	0.068987
633.000000	-0.010611
632.000000	0.015924
631.000000	0.037135
630.000000	0.031825
629.000000	0.005305
628.000000	0.068987
627.000000	-0.042425
626.000000	0.047761
625.000000	-0.021217
624.000000	0.021212
623.000000	-0.026544
622.000000	0.021236
621.000000	0.005306
620.000000	-0.010613
619.000000	0.010611
618.000000	0.026531
617.000000	-0.053084
616.000000	-0.005302
615.000000	-0.015922
614.000000	-0.037161
613.000000	0.042483
612.000000	0.063677
611.000000	0.005303
610.000000	-0.010602
609.000000	0.047761
608.000000	-0.042447
607.000000	0.031834
606.000000	-0.047748
605.000000	-0.005309
604.000000	-0.010617
603.000000	-0.047804
602.000000	0.015929
601.000000	0.026558
600.000000	0.000000
599.000000	0.000000
598.000000	0.015944
597.000000	-0.090401
596.000000	0.010636
595.000000	0.053285
594.000000	0.010656
593.000000	-0.016002
592.000000	0.042719
591.000000	-0.010683
590.000000	0.021382
589.000000	-0.005348
588.000000	0.005360
587.000000	0.026836
586.000000	0.005368
585.000000	-0.026867
584.000000	0.032305
583.000000	0.021556
582.000000	0.032378
581.000000	0.005401
580.000000	0.000000
579.000000	0.059482
578.000000	-0.032492
577.000000	0.048736
576.000000	-0.059624
575.000000	0.065027
574.000000	0.000000
573.000000	0.027149
572.000000	-0.010858
571.000000	0.016309
570.000000	0.027211
569.000000	0.005449
568.000000	-0.049001
567.000000	-0.010899
566.000000	-0.027276
565.000000	-0.049105
564.000000	0.054561
563.000000	0.043697
562.000000	-0.027334
561.000000	-0.021883
560.000000	-0.125903
559.000000	0.021902
558.000000	-0.043874
557.000000	-0.098831
556.000000	0.043910
555.000000	-0.043961
554.000000	-0.027485
553.000000	0.005499
552.000000	0.000000
551.000000	-0.005501
550.000000	0.022036
549.000000	-0.038563
548.000000	-0.044128
547.000000	0.038629
546.000000	0.000000
545.000000	-0.033114
544.000000	-0.022079
543.000000	-0.055258
542.000000	0.005527
541.000000	-0.044236
540.000000	0.060891
539.000000	0.033274
538.000000	0.005552
537.000000	0.005548
536.000000	0.061091
535.000000	0.022222
534.000000	-0.011131
533.000000	-0.033396
532.000000	-0.033441
531.000000	-0.055779
530.000000	-0.011165
529.000000	-0.022348
528.000000	-0.111957
527.000000	-0.044795
526.000000	-0.028036
525.000000	0.039288
524.000000	-0.078612
523.000000	-0.073149
522.000000	0.000000
521.000000	0.005641
520.000000	0.033877
519.000000	-0.039544
518.000000	0.033962
517.000000	-0.005663
516.000000	0.017018
515.000000	-0.011362
514.000000	0.039850
513.000000	-0.074066
512.000000	-0.085490
511.000000	-0.057110
510.000000	-0.028591
509.000000	-0.045819
508.000000	0.011484
507.000000	-0.045977
506.000000	0.051769
505.000000	0.023079
504.000000	-0.057807
503.000000	-0.086916
502.000000	-0.034817
501.000000	-0.087103
500.000000	-0.081495
499.000000	0.029165
498.000000	-0.040926
497.000000	0.017559
496.000000	-0.029313
495.000000	0.052898
494.000000	-0.106045
493.000000	-0.082567
492.000000	-0.017747
491.000000	-0.035621
490.000000	-0.047531
489.000000	-0.017885
488.000000	0.077635
487.000000	-0.017971
486.000000	-0.012013
485.000000	0.018084
484.000000	-0.030191
483.000000	0.024232
482.000000	-0.078979
481.000000	0.079215
480.000000	-0.134581
479.000000	0.091929
478.000000	-0.098365
477.000000	0.018519
476.000000	0.006189
475.000000	-0.006206
474.000000	-0.056085
473.000000	-0.100144
472.000000	0.031346
471.000000	-0.150981
470.000000	-0.018961
469.000000	-0.107806
468.000000	-0.044566
467.000000	-0.038270
466.000000	0.000000
465.000000	0.025740
464.000000	-0.058080
463.000000	-0.019405
462.000000	-0.052046
461.000000	-0.045614
460.000000	-0.026259
459.000000	0.013136
458.000000	-0.006598
457.000000	-0.112412
456.000000	0.019920
455.000000	-0.040048
454.000000	-0.113705
453.000000	-0.181965
452.000000	-0.101235
451.000000	0.176021
450.000000	0.067898
449.000000	0.204583
448.000000	0.000000
447.000000	-0.082628
446.000000	-0.068937
445.000000	0.083385
444.000000	-0.069832
443.000000	0.105293
442.000000	-0.226084
441.000000	-0.007090
440.000000	-0.113895
439.000000	-0.021501
438.000000	0.072093
437.000000	-0.058051
436.000000	-0.203888
435.000000	0.007323
434.000000	-0.264823
433.000000	0.051940
432.000000	-0.044840
431.000000	0.052434
430.000000	-0.022677
429.000000	-0.281027
428.000000	-0.038124
427.000000	0.038232
426.000000	-0.254237
425.000000	-0.178212
424.000000	0.249552
423.000000	-0.054898
422.000000	0.086943
421.000000	0.055450
420.000000	0.031850
419.000000	-0.104008
418.000000	-0.064242
417.000000	0.040398
416.000000	-0.008115
415.000000	0.065232
414.000000	0.016408
413.000000	-0.115397
412.000000	-0.066297
411.000000	-0.058299
410.000000	0.016746
409.000000	0.008412
408.000000	0.033835
407.000000	-0.059499
406.000000	-0.025645
405.000000	-0.025753
404.000000	-0.034524
403.000000	0.095436
402.000000	-0.113280
401.000000	0.078844
400.000000	-0.123598
399.000000	-0.070909
398.000000	0.133642
397.000000	-0.035846
396.000000	0.062995
395.000000	0.009056
394.000000	0.145441
393.000000	-0.082380
392.000000	-0.138300
391.000000	-0.083589
390.000000	-0.046659
389.000000	-0.075082
388.000000	-0.056647
387.000000	-0.056996
386.000000	-0.114362
385.000000	-2.444229
384.000000	-2.380718
383.000000	-1.426817
382.000000	-0.783497
381.000000	-3.541147
380.000000	-1.835682
379.000000	0.823128
378.000000	0.356633
377.000000	-1.897344
376.000000	0.212788
375.000000	0.050865
374.000000	-0.473300
373.000000	-0.831342
372.000000	-0.786816
371.000000	0.551373
370.000000	0.364104
369.000000	0.716731
368.000000	-0.744096
367.000000	0.777486
366.000000	-0.612423
365.000000	-0.044297
364.000000	-0.557103
363.000000	0.684778
362.000000	0.626566
361.000000	-0.586746
360.000000	-0.332264
359.000000	-0.357555
358.000000	0.365092
357.000000	0.682674
356.000000	-0.604767
355.000000	0.425784
354.000000	-0.948092
353.000000	-0.724463
352.000000	-0.645321
351.000000	-1.928909
350.000000	-0.427873
349.000000	0.603597
348.000000	0.112669
347.000000	1.822982
346.000000	-0.545547
345.000000	-1.175727
344.000000	-1.478339
343.000000	-1.667522
342.000000	0.774888
341.000000	-2.606759
340.000000	1.218075
339.000000	-0.053191
338.000000	1.971682
337.000000	-1.005362
336.000000	-0.678191
335.000000	-0.414162
334.000000	-0.149986
333.000000	1.504278
332.000000	-2.635532
331.000000	-3.523444
330.000000	-1.722677
329.000000	-1.048511
328.000000	0.739452
327.000000	-3.764739
326.000000	1.561216
325.000000	-2.671440
324.000000	-0.854222
323.000000	-1.128448
322.000000	-1.470588
321.000000	-1.231946
320.000000	-0.764548
319.000000	-0.600944
318.000000	-0.391248
317.000000	-0.860435
316.000000	-0.632167
315.000000	-0.459736
314.000000	-0.776583
313.000000	-0.632816
312.000000	-0.622249
311.000000	-0.211993
310.000000	-1.489329
309.000000	0.401544
308.000000	0.124669
307.000000	0.047207
306.000000	0.221134
305.000000	-0.288277
304.000000	0.903809
303.000000	-1.061398
302.000000	-0.230415
301.000000	-0.567423
300.000000	-0.285235
299.000000	-0.645709
298.000000	-0.276148
297.000000	-1.241042
296.000000	-0.511915
295.000000	-0.195904
294.000000	-0.250537
293.000000	-0.328168
292.000000	-0.679398
291.000000	-0.691330
290.000000	-0.301318
289.000000	-1.687440
288.000000	-0.667811
287.000000	0.118413
286.000000	-0.575740
285.000000	-0.241158
284.000000	-0.162966
283.000000	-0.285773
282.000000	0.269486
281.000000	-0.806109
280.000000	-1.026518
279.000000	-0.258231
278.000000	-0.977199
277.000000	-0.350723
276.000000	0.109577
275.000000	-0.288121
274.000000	-0.425151
273.000000	-0.224417
272.000000	-0.181488
271.000000	0.730760
270.000000	-0.183192
269.000000	-0.848819
268.000000	-0.139082
267.000000	0.185314
266.000000	-0.326569
265.000000	-0.492611
264.000000	-0.426136
263.000000	-0.094429
262.000000	-0.694278
261.000000	0.120424
260.000000	-0.316687
259.000000	0.049273
258.000000	-0.223048
257.000000	-0.450789
256.000000	-0.075548
255.000000	-0.739042
254.000000	-0.232678
253.000000	0.078084
252.000000	-0.105541
251.000000	0.106895
250.000000	-0.164024
