Created as New Dataset,
nm,%T
700.0,81.11
699.0,81.12
698.0,81.14
697.0,81.13
696.0,81.15
695.0,81.17
694.0,81.15
693.0,81.16
692.0,81.09
691.0,81.10
690.0,81.08
689.0,81.13
688.0,81.04
687.0,81.06
686.0,81.06
685.0,81.09
684.0,81.08
683.0,81.17
682.0,81.10
681.0,80.98
680.0,81.02
679.0,81.17
678.0,81.01
677.0,81.08
676.0,81.17
675.0,80.93
674.0,80.91
673.0,81.07
672.0,81.03
671.0,81.17
670.0,81.25
669.0,80.96
668.0,81.05
667.0,81.05
666.0,80.99
665.0,81.11
664.0,81.12
663.0,81.02
662.0,81.13
661.0,81.18
660.0,80.97
659.0,81.01
658.0,81.06
657.0,80.99
656.0,80.95
655.0,80.99
654.0,81.00
653.0,81.06
652.0,81.08
651.0,80.95
650.0,81.01
649.0,80.92
648.0,81.05
647.0,80.94
646.0,80.97
645.0,80.92
644.0,80.95
643.0,80.84
642.0,81.04
641.0,80.97
640.0,81.07
639.0,80.99
638.0,80.97
637.0,80.98
636.0,80.95
635.0,80.91
634.0,80.96
633.0,80.98
632.0,80.96
631.0,80.89
630.0,80.97
629.0,81.03
628.0,80.95
627.0,81.03
626.0,80.93
625.0,80.93
624.0,80.90
623.0,81.00
622.0,80.95
621.0,80.89
620.0,80.89
619.0,80.85
618.0,80.93
617.0,80.83
616.0,80.79
615.0,80.93
614.0,80.83
613.0,80.83
612.0,80.92
611.0,80.88
610.0,80.85
609.0,80.87
608.0,80.74
607.0,80.83
606.0,80.89
605.0,80.92
604.0,80.78
603.0,80.77
602.0,80.77
601.0,80.82
600.0,80.82
599.0,80.84
598.0,80.84
597.0,80.73
596.0,80.69
595.0,80.75
594.0,80.67
593.0,80.79
592.0,80.79
591.0,80.70
590.0,80.74
589.0,80.77
588.0,80.70
587.0,80.62
586.0,80.59
585.0,80.80
584.0,80.72
583.0,80.76
582.0,80.72
581.0,80.71
580.0,80.72
579.0,80.72
578.0,80.69
577.0,80.73
576.0,80.70
575.0,80.75
574.0,80.66
573.0,80.52
572.0,80.55
571.0,80.52
570.0,80.73
569.0,80.76
568.0,80.60
567.0,80.60
566.0,80.53
565.0,80.59
564.0,80.42
563.0,80.68
562.0,80.56
561.0,80.57
560.0,80.53
559.0,80.50
558.0,80.68
557.0,80.54
556.0,80.51
555.0,80.41
554.0,80.45
553.0,80.46
552.0,80.53
551.0,80.36
550.0,80.52
549.0,80.45
548.0,80.52
547.0,80.53
546.0,80.42
545.0,80.62
544.0,80.43
543.0,80.47
542.0,80.58
541.0,80.46
540.0,80.38
539.0,80.37
538.0,80.50
537.0,80.45
536.0,80.40
535.0,80.35
534.0,80.36
533.0,80.26
532.0,80.43
531.0,80.47
530.0,80.31
529.0,80.40
528.0,80.30
527.0,80.18
526.0,80.28
525.0,80.27
524.0,80.32
523.0,80.26
522.0,80.31
521.0,80.23
520.0,80.25
519.0,80.23
518.0,80.27
517.0,80.25
516.0,80.23
515.0,80.27
514.0,80.20
513.0,80.17
512.0,80.15
511.0,80.09
510.0,80.11
509.0,80.13
508.0,80.16
507.0,80.12
506.0,80.10
505.0,80.11
504.0,80.08
503.0,80.09
502.0,80.17
501.0,80.15
500.0,80.06
499.0,80.01
498.0,80.04
497.0,79.98
496.0,79.98
495.0,79.98
494.0,79.87
493.0,79.87
492.0,79.98
491.0,79.86
490.0,79.78
489.0,79.91
488.0,79.85
487.0,79.93
486.0,79.86
485.0,79.67
484.0,79.75
483.0,79.66
482.0,79.78
481.0,79.79
480.0,79.75
479.0,79.72
478.0,79.55
477.0,79.55
476.0,79.59
475.0,79.55
474.0,79.76
473.0,79.60
472.0,79.57
471.0,79.35
470.0,79.63
469.0,79.57
468.0,79.49
467.0,79.38
466.0,79.61
465.0,79.68
464.0,79.51
463.0,79.54
462.0,79.46
461.0,79.22
460.0,79.33
459.0,79.50
458.0,79.40
457.0,79.35
456.0,79.23
455.0,79.31
454.0,79.36
453.0,78.99
452.0,79.31
451.0,79.18
450.0,79.11
449.0,79.25
448.0,78.93
447.0,79.18
446.0,78.90
445.0,79.02
444.0,79.13
443.0,79.11
442.0,79.20
441.0,78.82
440.0,78.98
439.0,78.75
438.0,78.70
437.0,78.91
436.0,79.11
435.0,78.93
434.0,78.73
433.0,78.69
432.0,78.60
431.0,78.56
430.0,79.17
429.0,78.76
428.0,78.90
427.0,78.61
426.0,78.33
425.0,78.32
424.0,78.70
423.0,78.51
422.0,78.29
421.0,78.36
420.0,78.39
419.0,78.35
418.0,78.36
417.0,78.40
416.0,78.20
415.0,78.28
414.0,78.25
413.0,78.28
412.0,78.22
411.0,78.22
410.0,78.12
409.0,78.11
408.0,78.07
407.0,78.11
406.0,78.02
405.0,77.92
404.0,77.95
403.0,78.07
402.0,77.78
401.0,77.83
400.0,77.82
399.0,77.72
398.0,77.70
397.0,77.61
396.0,77.66
395.0,77.43
394.0,77.46
393.0,77.44
392.0,77.44
391.0,77.40
390.0,77.19
389.0,77.11
388.0,77.11
387.0,76.99
386.0,77.17
385.0,74.90
384.0,74.27
383.0,78.68
382.0,79.47
381.0,76.71
380.0,77.88
379.0,76.76
378.0,76.47
377.0,77.70
376.0,77.80
375.0,78.77
374.0,78.46
373.0,77.03
372.0,75.48
371.0,74.61
370.0,74.99
369.0,75.94
368.0,78.61
367.0,75.60
366.0,77.11
365.0,74.89
364.0,76.03
363.0,75.77
362.0,75.95
361.0,77.21
360.0,77.07
359.0,74.57
358.0,73.69
357.0,77.58
356.0,75.26
355.0,75.85
354.0,73.46
353.0,73.88
352.0,74.24
351.0,76.36
350.0,74.01
349.0,75.81
348.0,73.21
347.0,71.90
346.0,72.71
345.0,77.90
344.0,73.29
343.0,71.79
342.0,73.29
341.0,75.20
340.0,72.60
339.0,73.53
338.0,72.88
337.0,72.22
336.0,69.44
335.0,68.14
334.0,69.46
333.0,67.57
332.0,70.43
331.0,69.76
330.0,64.25
329.0,70.75
328.0,67.49
327.0,61.98
326.0,67.94
325.0,64.36
324.0,62.80
323.0,63.59
322.0,62.84
321.0,62.53
320.0,60.53
319.0,58.94
318.0,56.99
317.0,53.87
316.0,52.60
315.0,50.56
314.0,46.82
313.0,42.73
312.0,37.80
311.0,30.87
310.0,25.54
309.0,17.39
308.0,11.82
307.0,9.40
306.0,6.70
305.0,6.24
304.0,6.12
303.0,5.00
302.0,6.09
301.0,7.24
300.0,5.74
