Created as New Dataset,
nm,%T
700.0,65.58
699.0,65.51
698.0,65.58
697.0,65.60
696.0,65.61
695.0,65.65
694.0,65.53
693.0,65.60
692.0,65.55
691.0,65.58
690.0,65.54
689.0,65.61
688.0,65.57
687.0,65.52
686.0,65.52
685.0,65.55
684.0,65.52
683.0,65.56
682.0,65.69
681.0,65.59
680.0,65.58
679.0,65.78
678.0,65.59
677.0,65.64
676.0,65.70
675.0,65.50
674.0,65.57
673.0,65.50
672.0,65.65
671.0,65.65
670.0,65.68
669.0,65.57
668.0,65.54
667.0,65.52
666.0,65.47
665.0,65.52
664.0,65.62
663.0,65.59
662.0,65.61
661.0,65.65
660.0,65.53
659.0,65.41
658.0,65.52
657.0,65.54
656.0,65.46
655.0,65.57
654.0,65.53
653.0,65.58
652.0,65.52
651.0,65.54
650.0,65.68
649.0,65.49
648.0,65.70
647.0,65.55
646.0,65.56
645.0,65.53
644.0,65.58
643.0,65.46
642.0,65.56
641.0,65.54
640.0,65.63
639.0,65.58
638.0,65.43
637.0,65.54
636.0,65.58
635.0,65.60
634.0,65.60
633.0,65.50
632.0,65.54
631.0,65.53
630.0,65.61
629.0,65.50
628.0,65.52
627.0,65.51
626.0,65.46
625.0,65.50
624.0,65.47
623.0,65.52
622.0,65.48
621.0,65.55
620.0,65.50
619.0,65.44
618.0,65.53
617.0,65.39
616.0,65.37
615.0,65.46
614.0,65.42
613.0,65.37
612.0,65.38
611.0,65.45
610.0,65.39
609.0,65.40
608.0,65.32
607.0,65.38
606.0,65.41
605.0,65.46
604.0,65.30
603.0,65.25
602.0,65.29
601.0,65.28
600.0,65.33
599.0,65.26
598.0,65.32
597.0,65.15
596.0,65.19
595.0,65.25
594.0,65.16
593.0,65.22
592.0,65.11
591.0,65.17
590.0,65.17
589.0,65.12
588.0,65.06
587.0,65.05
586.0,65.06
585.0,65.07
584.0,65.03
583.0,65.05
582.0,65.01
581.0,65.01
580.0,65.02
579.0,64.98
578.0,65.14
577.0,65.15
576.0,64.97
575.0,65.10
574.0,64.98
573.0,64.89
572.0,64.84
571.0,65.03
570.0,64.90
569.0,65.10
568.0,64.97
567.0,64.93
566.0,65.01
565.0,65.00
564.0,64.92
563.0,65.00
562.0,64.90
561.0,64.84
560.0,64.87
559.0,64.86
558.0,64.95
557.0,64.84
556.0,64.84
555.0,64.91
554.0,64.83
553.0,64.87
552.0,64.93
551.0,64.80
550.0,64.89
549.0,64.83
548.0,64.92
547.0,64.94
546.0,64.87
545.0,64.95
544.0,64.88
543.0,64.82
542.0,64.84
541.0,64.81
540.0,64.82
539.0,64.81
538.0,64.87
537.0,64.74
536.0,64.73
535.0,64.72
534.0,64.83
533.0,64.69
532.0,64.81
531.0,64.75
530.0,64.73
529.0,64.65
528.0,64.66
527.0,64.55
526.0,64.67
525.0,64.67
524.0,64.58
523.0,64.64
522.0,64.60
521.0,64.56
520.0,64.53
519.0,64.57
518.0,64.53
517.0,64.56
516.0,64.53
515.0,64.58
514.0,64.55
513.0,64.50
512.0,64.43
511.0,64.51
510.0,64.43
509.0,64.42
508.0,64.40
507.0,64.44
506.0,64.38
505.0,64.32
504.0,64.35
503.0,64.27
502.0,64.33
501.0,64.29
500.0,64.39
499.0,64.28
498.0,64.35
497.0,64.17
496.0,64.17
495.0,64.18
494.0,64.06
493.0,64.09
492.0,64.19
491.0,64.07
490.0,64.16
489.0,64.08
488.0,63.95
487.0,64.08
486.0,64.06
485.0,63.93
484.0,63.97
483.0,63.94
482.0,63.82
481.0,63.78
480.0,63.82
479.0,63.81
478.0,63.75
477.0,63.78
476.0,63.76
475.0,63.66
474.0,63.75
473.0,63.77
472.0,63.66
471.0,63.67
470.0,63.60
469.0,63.68
468.0,63.46
467.0,63.54
466.0,63.60
465.0,63.83
464.0,63.54
463.0,63.52
462.0,63.58
461.0,63.34
460.0,63.40
459.0,63.22
458.0,63.47
457.0,63.23
456.0,63.27
455.0,63.35
454.0,63.36
453.0,63.00
452.0,63.21
451.0,63.13
450.0,63.22
449.0,63.35
448.0,63.42
447.0,63.14
446.0,63.09
445.0,62.99
444.0,63.05
443.0,62.96
442.0,63.07
441.0,62.80
440.0,62.85
439.0,62.54
438.0,62.97
437.0,62.72
436.0,62.79
435.0,63.09
434.0,62.56
433.0,62.59
432.0,62.74
431.0,62.64
430.0,62.80
429.0,62.38
428.0,62.80
427.0,62.48
426.0,62.24
425.0,62.07
424.0,62.28
423.0,62.32
422.0,61.80
421.0,62.10
420.0,62.25
419.0,62.02
418.0,62.13
417.0,62.07
416.0,61.98
415.0,61.78
414.0,61.85
413.0,61.83
412.0,61.66
411.0,61.60
410.0,61.59
409.0,61.59
408.0,61.53
407.0,61.38
406.0,61.34
405.0,61.21
404.0,61.21
403.0,61.33
402.0,61.02
401.0,60.92
400.0,60.93
399.0,60.84
398.0,60.70
397.0,60.68
396.0,60.58
395.0,60.46
394.0,60.43
393.0,60.61
392.0,60.45
391.0,60.44
390.0,60.08
389.0,59.99
388.0,59.97
387.0,59.84
386.0,59.74
385.0,59.38
384.0,57.22
383.0,57.42
382.0,57.01
381.0,62.61
380.0,63.23
379.0,56.74
378.0,58.91
377.0,61.97
376.0,57.66
375.0,58.01
374.0,58.00
373.0,58.32
372.0,59.36
371.0,57.12
370.0,58.32
369.0,58.63
368.0,58.52
367.0,58.81
366.0,57.44
365.0,59.89
364.0,59.84
363.0,57.17
362.0,56.74
361.0,59.24
360.0,57.98
359.0,57.76
358.0,59.91
357.0,58.18
356.0,56.28
355.0,57.79
354.0,55.74
353.0,55.85
352.0,56.77
351.0,58.42
350.0,59.33
349.0,54.96
348.0,53.97
347.0,53.71
346.0,55.68
345.0,52.82
344.0,59.34
343.0,53.44
342.0,53.93
341.0,52.82
340.0,53.44
339.0,54.62
338.0,51.32
337.0,54.79
336.0,49.50
335.0,47.72
334.0,50.75
333.0,49.39
332.0,43.85
331.0,51.21
330.0,47.58
329.0,46.02
328.0,48.46
327.0,41.83
326.0,41.76
325.0,43.52
324.0,43.29
323.0,41.51
322.0,39.25
321.0,38.13
320.0,37.48
319.0,34.95
318.0,33.61
317.0,30.89
316.0,28.99
315.0,26.46
314.0,25.68
313.0,23.25
312.0,21.60
311.0,18.19
310.0,16.20
309.0,13.70
308.0,12.23
307.0,9.87
306.0,6.77
305.0,4.59
304.0,3.03
303.0,2.93
302.0,0.74
301.0,0.40
300.0,0.61
