Created as New Dataset,
nm,%T
700.0,79.44
699.0,79.44
698.0,79.46
697.0,79.46
696.0,79.44
695.0,79.46
694.0,79.42
693.0,79.45
692.0,79.37
691.0,79.44
690.0,79.40
689.0,79.43
688.0,79.42
687.0,79.34
686.0,79.37
685.0,79.43
684.0,79.39
683.0,79.29
682.0,79.35
681.0,79.44
680.0,79.24
679.0,79.33
678.0,79.20
677.0,79.31
676.0,79.38
675.0,79.27
674.0,79.34
673.0,79.36
672.0,79.30
671.0,79.40
670.0,79.39
669.0,79.23
668.0,79.45
667.0,79.31
666.0,79.32
665.0,79.41
664.0,79.30
663.0,79.23
662.0,79.32
661.0,79.40
660.0,79.17
659.0,79.21
658.0,79.34
657.0,79.26
656.0,79.17
655.0,79.25
654.0,79.30
653.0,79.22
652.0,79.28
651.0,79.33
650.0,79.25
649.0,79.27
648.0,79.22
647.0,79.21
646.0,79.18
645.0,79.29
644.0,79.28
643.0,79.20
642.0,79.15
641.0,79.29
640.0,79.31
639.0,79.27
638.0,79.22
637.0,79.26
636.0,79.19
635.0,79.16
634.0,79.19
633.0,79.25
632.0,79.26
631.0,79.22
630.0,79.16
629.0,79.19
628.0,79.16
627.0,79.22
626.0,79.15
625.0,79.23
624.0,79.07
623.0,79.20
622.0,79.11
621.0,79.21
620.0,79.09
619.0,79.18
618.0,79.18
617.0,79.17
616.0,79.09
615.0,79.13
614.0,79.14
613.0,79.03
612.0,79.10
611.0,79.21
610.0,79.10
609.0,79.07
608.0,79.05
607.0,79.11
606.0,79.09
605.0,79.10
604.0,79.02
603.0,79.02
602.0,79.10
601.0,79.11
600.0,79.04
599.0,78.98
598.0,79.04
597.0,79.02
596.0,79.01
595.0,79.04
594.0,79.02
593.0,79.00
592.0,78.95
591.0,78.95
590.0,79.00
589.0,78.99
588.0,78.99
587.0,78.88
586.0,78.91
585.0,78.96
584.0,78.92
583.0,78.98
582.0,78.99
581.0,78.98
580.0,78.91
579.0,78.98
578.0,78.92
577.0,78.93
576.0,78.92
575.0,78.93
574.0,78.86
573.0,78.85
572.0,78.76
571.0,78.88
570.0,78.87
569.0,79.09
568.0,78.96
567.0,78.94
566.0,78.86
565.0,79.00
564.0,78.78
563.0,78.91
562.0,78.77
561.0,78.77
560.0,78.81
559.0,78.72
558.0,78.88
557.0,78.85
556.0,78.89
555.0,78.81
554.0,78.69
553.0,78.89
552.0,78.77
551.0,78.79
550.0,78.77
549.0,78.82
548.0,78.87
547.0,78.88
546.0,78.79
545.0,78.95
544.0,78.71
543.0,78.73
542.0,78.86
541.0,78.69
540.0,78.75
539.0,78.74
538.0,78.80
537.0,78.75
536.0,78.63
535.0,78.84
534.0,78.78
533.0,78.72
532.0,78.76
531.0,78.72
530.0,78.65
529.0,78.78
528.0,78.68
527.0,78.61
526.0,78.71
525.0,78.63
524.0,78.61
523.0,78.67
522.0,78.58
521.0,78.62
520.0,78.62
519.0,78.62
518.0,78.71
517.0,78.55
516.0,78.70
515.0,78.63
514.0,78.72
513.0,78.59
512.0,78.57
511.0,78.49
510.0,78.55
509.0,78.43
508.0,78.58
507.0,78.38
506.0,78.55
505.0,78.56
504.0,78.51
503.0,78.54
502.0,78.48
501.0,78.53
500.0,78.52
499.0,78.59
498.0,78.49
497.0,78.37
496.0,78.43
495.0,78.37
494.0,78.31
493.0,78.35
492.0,78.48
491.0,78.34
490.0,78.38
489.0,78.35
488.0,78.30
487.0,78.41
486.0,78.36
485.0,78.14
484.0,78.37
483.0,78.25
482.0,78.23
481.0,78.24
480.0,78.21
479.0,78.22
478.0,78.16
477.0,78.13
476.0,78.21
475.0,78.11
474.0,78.27
473.0,78.08
472.0,78.13
471.0,78.10
470.0,78.01
469.0,78.21
468.0,78.19
467.0,78.08
466.0,78.07
465.0,78.06
464.0,78.10
463.0,78.02
462.0,77.93
461.0,77.91
460.0,77.99
459.0,77.89
458.0,78.04
457.0,77.75
456.0,77.70
455.0,77.95
454.0,77.96
453.0,77.89
452.0,77.87
451.0,77.83
450.0,77.92
449.0,77.92
448.0,78.04
447.0,77.72
446.0,77.65
445.0,77.59
444.0,77.70
443.0,77.43
442.0,77.75
441.0,77.44
440.0,77.46
439.0,77.52
438.0,77.23
437.0,77.73
436.0,77.83
435.0,77.39
434.0,77.51
433.0,77.00
432.0,77.49
431.0,77.23
430.0,77.70
429.0,77.47
428.0,77.40
427.0,77.33
426.0,77.18
425.0,77.18
424.0,77.29
423.0,76.98
422.0,76.97
421.0,77.12
420.0,77.17
419.0,77.08
418.0,77.10
417.0,77.18
416.0,77.02
415.0,76.97
414.0,77.02
413.0,76.97
412.0,76.98
411.0,76.83
410.0,76.80
409.0,76.85
408.0,76.78
407.0,76.75
406.0,76.66
405.0,76.56
404.0,76.55
403.0,76.77
402.0,76.56
401.0,76.27
400.0,76.49
399.0,76.45
398.0,76.17
397.0,76.19
396.0,76.15
395.0,76.15
394.0,75.97
393.0,75.94
392.0,76.02
391.0,75.99
390.0,75.81
389.0,75.54
388.0,75.64
387.0,75.58
386.0,75.58
385.0,73.21
384.0,70.72
383.0,70.21
382.0,73.74
381.0,74.98
380.0,74.82
379.0,75.04
378.0,76.93
377.0,75.11
376.0,75.38
375.0,72.86
374.0,75.56
373.0,72.87
372.0,74.38
371.0,73.56
370.0,73.51
369.0,77.41
368.0,75.33
367.0,75.54
366.0,72.41
365.0,72.76
364.0,73.66
363.0,77.05
362.0,75.40
361.0,74.95
360.0,73.89
359.0,72.91
358.0,74.60
357.0,77.58
356.0,72.59
355.0,75.24
354.0,72.04
353.0,72.81
352.0,74.92
351.0,77.60
350.0,76.17
349.0,74.51
348.0,72.06
347.0,71.12
346.0,71.80
345.0,72.38
344.0,72.12
343.0,73.46
342.0,72.72
341.0,75.26
340.0,70.30
339.0,73.97
338.0,72.80
337.0,73.43
336.0,67.96
335.0,74.88
334.0,70.64
333.0,73.66
332.0,71.62
331.0,67.27
330.0,65.77
329.0,69.26
328.0,70.06
327.0,59.70
326.0,68.33
325.0,66.82
324.0,66.36
323.0,67.63
322.0,65.33
321.0,65.71
320.0,62.91
319.0,61.98
318.0,61.79
317.0,59.64
316.0,60.83
315.0,58.18
314.0,57.35
313.0,55.56
312.0,53.56
311.0,52.94
310.0,50.86
309.0,48.66
308.0,46.38
307.0,43.88
306.0,40.75
305.0,37.31
304.0,34.02
303.0,31.05
302.0,25.67
301.0,22.75
300.0,18.12
