Created as New Dataset,
nm,%T
700.0,82.21
699.0,82.26
698.0,82.23
697.0,82.22
696.0,82.30
695.0,82.20
694.0,82.13
693.0,82.19
692.0,82.12
691.0,82.09
690.0,82.09
689.0,82.14
688.0,82.04
687.0,82.01
686.0,82.00
685.0,81.99
684.0,81.97
683.0,81.99
682.0,81.69
681.0,81.80
680.0,81.77
679.0,82.06
678.0,81.65
677.0,81.83
676.0,81.74
675.0,81.62
674.0,81.69
673.0,81.82
672.0,81.81
671.0,81.88
670.0,81.71
669.0,81.70
668.0,81.73
667.0,81.63
666.0,81.62
665.0,81.68
664.0,81.79
663.0,81.55
662.0,81.61
661.0,81.66
660.0,81.56
659.0,81.59
658.0,81.57
657.0,81.51
656.0,81.47
655.0,81.45
654.0,81.40
653.0,81.39
652.0,81.52
651.0,81.53
650.0,81.55
649.0,81.46
648.0,81.47
647.0,81.42
646.0,81.26
645.0,81.39
644.0,81.30
643.0,81.28
642.0,81.36
641.0,81.33
640.0,81.38
639.0,81.36
638.0,81.27
637.0,81.40
636.0,81.22
635.0,81.21
634.0,81.20
633.0,81.26
632.0,81.24
631.0,81.14
630.0,81.25
629.0,81.11
628.0,81.01
627.0,81.14
626.0,81.07
625.0,81.20
624.0,80.97
623.0,81.06
622.0,80.97
621.0,81.14
620.0,81.09
619.0,81.02
618.0,81.03
617.0,81.02
616.0,80.85
615.0,80.98
614.0,80.91
613.0,80.91
612.0,80.86
611.0,80.87
610.0,80.91
609.0,80.82
608.0,80.85
607.0,80.81
606.0,80.89
605.0,80.86
604.0,80.81
603.0,80.81
602.0,80.76
601.0,80.74
600.0,80.74
599.0,80.78
598.0,80.62
597.0,80.71
596.0,80.69
595.0,80.70
594.0,80.61
593.0,80.58
592.0,80.59
591.0,80.70
590.0,80.65
589.0,80.64
588.0,80.54
587.0,80.46
586.0,80.45
585.0,80.54
584.0,80.54
583.0,80.50
582.0,80.36
581.0,80.40
580.0,80.29
579.0,80.33
578.0,80.34
577.0,80.30
576.0,80.14
575.0,80.20
574.0,80.11
573.0,80.06
572.0,79.94
571.0,79.91
570.0,79.98
569.0,80.04
568.0,79.87
567.0,79.79
566.0,79.63
565.0,79.87
564.0,79.70
563.0,79.76
562.0,79.72
561.0,79.66
560.0,79.70
559.0,79.54
558.0,79.80
557.0,79.78
556.0,79.69
555.0,79.62
554.0,79.67
553.0,79.67
552.0,79.71
551.0,79.72
550.0,79.55
549.0,79.59
548.0,79.73
547.0,79.68
546.0,79.69
545.0,79.67
544.0,79.62
543.0,79.61
542.0,79.62
541.0,79.61
540.0,79.69
539.0,79.60
538.0,79.61
537.0,79.55
536.0,79.50
535.0,79.65
534.0,79.57
533.0,79.49
532.0,79.57
531.0,79.59
530.0,79.54
529.0,79.51
528.0,79.45
527.0,79.39
526.0,79.47
525.0,79.58
524.0,79.49
523.0,79.41
522.0,79.46
521.0,79.39
520.0,79.43
519.0,79.43
518.0,79.46
517.0,79.48
516.0,79.47
515.0,79.53
514.0,79.38
513.0,79.40
512.0,79.30
511.0,79.42
510.0,79.35
509.0,79.38
508.0,79.39
507.0,79.32
506.0,79.38
505.0,79.42
504.0,79.36
503.0,79.39
502.0,79.21
501.0,79.45
500.0,79.34
499.0,79.34
498.0,79.32
497.0,79.29
496.0,79.43
495.0,79.37
494.0,79.22
493.0,79.25
492.0,79.34
491.0,79.10
490.0,79.27
489.0,79.29
488.0,79.33
487.0,79.26
486.0,79.10
485.0,78.97
484.0,79.21
483.0,79.26
482.0,79.20
481.0,79.13
480.0,79.16
479.0,79.16
478.0,78.98
477.0,79.13
476.0,79.02
475.0,79.00
474.0,79.20
473.0,79.04
472.0,79.01
471.0,78.75
470.0,78.91
469.0,78.94
468.0,78.95
467.0,78.60
466.0,78.93
465.0,78.90
464.0,78.74
463.0,78.65
462.0,78.54
461.0,78.40
460.0,78.60
459.0,78.54
458.0,78.63
457.0,78.09
456.0,78.11
455.0,78.19
454.0,78.19
453.0,77.95
452.0,78.17
451.0,77.89
450.0,77.86
449.0,77.86
448.0,77.83
447.0,77.75
446.0,77.45
445.0,77.71
444.0,77.59
443.0,76.99
442.0,77.13
441.0,77.13
440.0,76.99
439.0,76.66
438.0,76.88
437.0,76.61
436.0,76.31
435.0,76.29
434.0,76.24
433.0,75.71
432.0,75.84
431.0,75.41
430.0,75.72
429.0,75.17
428.0,74.71
427.0,75.03
426.0,74.76
425.0,74.44
424.0,74.35
423.0,74.20
422.0,74.02
421.0,73.69
420.0,73.22
419.0,72.86
418.0,72.69
417.0,72.56
416.0,72.10
415.0,71.86
414.0,71.56
413.0,71.42
412.0,70.85
411.0,70.53
410.0,70.15
409.0,69.72
408.0,69.74
407.0,69.15
406.0,68.71
405.0,68.26
404.0,67.87
403.0,67.56
402.0,67.10
401.0,66.57
400.0,66.27
399.0,65.62
398.0,65.20
397.0,64.67
396.0,64.29
395.0,63.63
394.0,63.25
393.0,62.80
392.0,62.32
391.0,61.87
390.0,61.46
389.0,60.72
388.0,60.27
387.0,59.54
386.0,59.17
385.0,57.45
384.0,61.73
383.0,56.60
382.0,60.40
381.0,62.22
380.0,59.84
379.0,57.94
378.0,56.49
377.0,59.03
376.0,58.11
375.0,57.30
374.0,57.71
373.0,56.16
372.0,57.18
371.0,56.33
370.0,56.62
369.0,56.95
368.0,56.96
367.0,56.22
366.0,56.44
365.0,54.67
364.0,55.28
363.0,55.65
362.0,56.61
361.0,55.29
360.0,55.02
359.0,54.17
358.0,53.15
357.0,57.17
356.0,54.40
355.0,54.25
354.0,52.76
353.0,51.47
352.0,51.92
351.0,53.44
350.0,50.93
349.0,48.86
348.0,47.56
347.0,47.31
346.0,49.56
345.0,47.67
344.0,46.72
343.0,45.71
342.0,43.22
341.0,48.26
340.0,44.49
339.0,46.92
338.0,42.65
337.0,47.01
336.0,44.07
335.0,43.03
334.0,41.59
333.0,42.68
332.0,46.95
331.0,41.73
330.0,40.71
329.0,47.60
328.0,42.35
327.0,39.18
326.0,41.17
325.0,43.81
324.0,42.20
323.0,42.90
322.0,43.03
321.0,42.84
320.0,43.82
319.0,42.94
318.0,43.79
317.0,43.26
316.0,42.30
315.0,43.20
314.0,43.43
313.0,44.35
312.0,43.52
311.0,43.60
310.0,43.50
309.0,43.15
308.0,43.63
307.0,44.78
306.0,42.90
305.0,44.21
304.0,44.62
303.0,44.08
302.0,44.28
301.0,43.75
300.0,45.05
