PE UV       SUBTECH     SPECTRUM    ASCII       PEDS        4.00        
   -1
SampleCriBGO_UG1 grasso.Sample.asc
11/01/16
04:30:31.00
11/01/16
04:30:31.00
PerkinElmer Method Developer

250.000000
1
Lambda 35
502S12111107
PerkinElmer UV WinLab 6.0.4.0738 / Lambda35 1.27

480
2
1
0
0
Both on
1
1
1
None
0
0
0
0
 
 
0
0
0
0
0
 
 
 
0
 
0
326
0
 
0
 
 
 
0
0
0
 
0
 
 
 
0
 
 
0
0
0
0
0
 
 
 
 
0
0


0
0
#HDR
-1
-1
#GR
nm
%T
1.0
0.0
900.000000
-1.000000
651
8
48.285780
-2.150322
#DATA
900.000000	-0.043864
899.000000	-0.053719
898.000000	0.039156
897.000000	0.058826
896.000000	-0.029488
895.000000	-0.014764
894.000000	-0.054195
893.000000	-0.088924
892.000000	-0.014869
891.000000	0.024835
890.000000	-0.109426
889.000000	-0.139769
888.000000	0.125081
887.000000	0.030086
886.000000	-0.035137
885.000000	-0.035247
884.000000	-0.055589
883.000000	0.020269
882.000000	-0.065900
881.000000	-0.086655
880.000000	-0.020410
879.000000	0.087014
878.000000	0.025670
877.000000	0.133676
876.000000	0.056833
875.000000	0.010358
874.000000	-0.077849
873.000000	-0.129890
872.000000	-0.005212
871.000000	0.000000
870.000000	0.010472
869.000000	0.147128
868.000000	-0.010527
867.000000	0.058023
866.000000	0.000000
865.000000	-0.074223
864.000000	0.063782
863.000000	-0.021324
862.000000	0.005335
861.000000	-0.010694
860.000000	0.091143
859.000000	0.144889
858.000000	0.016136
857.000000	-0.064795
856.000000	0.086454
855.000000	0.092051
854.000000	0.065058
853.000000	0.054312
852.000000	0.163345
851.000000	0.179719
850.000000	0.136448
849.000000	0.076519
848.000000	0.224277
847.000000	0.197401
846.000000	0.093319
845.000000	0.115448
844.000000	0.258540
843.000000	0.115920
842.000000	0.242571
841.000000	0.176620
840.000000	0.314795
839.000000	0.254707
838.000000	0.154919
837.000000	0.088652
836.000000	0.260792
835.000000	0.294592
834.000000	0.444766
833.000000	0.316702
832.000000	0.383931
831.000000	0.451203
830.000000	0.378619
829.000000	0.417804
828.000000	0.418014
827.000000	0.400601
826.000000	0.440651
825.000000	0.507303
824.000000	0.590924
823.000000	0.468019
822.000000	0.675223
821.000000	0.651920
820.000000	0.641312
819.000000	0.763401
818.000000	0.757534
817.000000	0.807799
816.000000	0.689540
815.000000	0.768246
814.000000	0.911972
813.000000	0.838842
812.000000	0.928087
811.000000	1.032702
810.000000	1.033046
809.000000	1.137877
808.000000	1.229440
807.000000	1.341612
806.000000	1.278645
805.000000	1.382896
804.000000	1.305238
803.000000	1.387737
802.000000	1.547816
801.000000	1.594747
800.000000	1.533962
799.000000	1.714160
798.000000	1.713687
797.000000	1.771957
796.000000	1.879327
795.000000	1.949585
794.000000	2.052915
793.000000	2.110630
792.000000	2.208824
791.000000	2.175104
790.000000	2.248605
789.000000	2.316940
788.000000	2.440756
787.000000	2.505459
786.000000	2.492773
785.000000	2.576533
784.000000	2.624415
783.000000	2.672545
782.000000	2.735926
781.000000	2.687151
780.000000	2.804905
779.000000	2.911516
778.000000	2.977869
777.000000	3.062995
776.000000	3.076423
775.000000	3.224061
774.000000	3.361435
773.000000	3.528840
772.000000	3.739829
771.000000	3.805986
770.000000	4.112170
769.000000	4.275113
768.000000	4.511480
767.000000	4.790805
766.000000	5.038406
765.000000	5.394680
764.000000	5.659568
763.000000	5.982631
762.000000	6.340967
761.000000	6.558431
760.000000	6.979111
759.000000	7.301689
758.000000	7.602370
757.000000	7.859353
756.000000	8.165333
755.000000	8.358655
754.000000	8.667412
753.000000	8.830104
752.000000	8.944820
751.000000	9.075916
750.000000	9.085113
749.000000	9.139699
748.000000	9.135816
747.000000	9.030065
746.000000	8.980827
745.000000	8.862237
744.000000	8.594910
743.000000	8.371353
742.000000	8.086325
741.000000	7.877856
740.000000	7.482380
739.000000	7.192452
738.000000	6.772571
737.000000	6.357861
736.000000	6.047768
735.000000	5.667866
734.000000	5.289633
733.000000	4.953429
732.000000	4.615955
731.000000	4.274002
730.000000	3.967414
729.000000	3.698217
728.000000	3.412879
727.000000	3.068783
726.000000	2.814964
725.000000	2.641330
724.000000	2.392800
723.000000	2.105263
722.000000	1.889089
721.000000	1.656260
720.000000	1.424713
719.000000	1.217898
718.000000	1.059827
717.000000	0.911355
716.000000	0.773920
715.000000	0.598739
714.000000	0.445363
713.000000	0.381922
712.000000	0.307578
711.000000	0.228286
710.000000	0.132591
709.000000	0.127416
708.000000	0.053087
707.000000	0.084993
706.000000	0.010628
705.000000	-0.010633
704.000000	-0.058470
703.000000	-0.026593
702.000000	-0.021262
701.000000	-0.015957
700.000000	-0.063837
699.000000	-0.010650
698.000000	-0.069215
697.000000	-0.053274
696.000000	-0.015984
695.000000	-0.042617
694.000000	-0.021328
693.000000	0.005333
692.000000	-0.021333
691.000000	-0.064051
690.000000	0.000000
689.000000	-0.053427
688.000000	-0.037385
687.000000	-0.021388
686.000000	-0.037411
685.000000	-0.010695
684.000000	-0.016049
683.000000	-0.074734
682.000000	-0.101550
681.000000	-0.112150
680.000000	0.026731
679.000000	-0.139023
678.000000	-0.058824
677.000000	-0.154898
676.000000	-0.064106
675.000000	-0.080222
674.000000	-0.187216
673.000000	-0.069422
672.000000	-0.032060
671.000000	-0.064096
670.000000	-0.026735
669.000000	-0.096169
668.000000	-0.064147
667.000000	-0.048118
666.000000	-0.005338
665.000000	-0.016026
664.000000	-0.106803
663.000000	-0.117408
662.000000	0.048077
661.000000	-0.149453
660.000000	0.101409
659.000000	-0.112054
658.000000	-0.074687
657.000000	-0.085292
656.000000	-0.106576
655.000000	-0.154502
654.000000	-0.090551
653.000000	-0.133127
652.000000	-0.122314
651.000000	0.015962
650.000000	-0.042567
649.000000	-0.106389
648.000000	-0.090469
647.000000	-0.074456
646.000000	-0.053223
645.000000	-0.047847
644.000000	-0.095668
643.000000	-0.047832
642.000000	-0.100962
641.000000	-0.084993
640.000000	-0.100855
639.000000	-0.026549
638.000000	-0.090176
637.000000	-0.084854
636.000000	-0.100897
635.000000	-0.068995
634.000000	-0.127361
633.000000	-0.068973
632.000000	-0.037155
631.000000	-0.132626
630.000000	-0.068955
629.000000	-0.132619
628.000000	-0.074294
627.000000	-0.084849
626.000000	-0.084908
625.000000	-0.090171
624.000000	-0.047728
623.000000	-0.063704
622.000000	0.000000
621.000000	-0.090195
620.000000	0.021226
619.000000	-0.063667
618.000000	-0.058368
617.000000	-0.010617
616.000000	-0.037116
615.000000	-0.122068
614.000000	-0.063704
613.000000	-0.106208
612.000000	0.000000
611.000000	-0.010605
610.000000	0.000000
609.000000	-0.100828
608.000000	-0.037141
607.000000	-0.037139
606.000000	-0.042443
605.000000	-0.037165
604.000000	-0.069009
603.000000	-0.037181
602.000000	-0.090267
601.000000	-0.074361
600.000000	-0.116829
599.000000	-0.042526
598.000000	-0.069090
597.000000	-0.063813
596.000000	0.000000
595.000000	-0.042628
594.000000	0.000000
593.000000	-0.080009
592.000000	-0.069418
591.000000	-0.005341
590.000000	-0.042765
589.000000	-0.080222
588.000000	-0.032161
587.000000	-0.059038
586.000000	-0.037576
585.000000	-0.053735
584.000000	-0.086147
583.000000	-0.053891
582.000000	-0.080945
581.000000	-0.048607
580.000000	0.091872
579.000000	-0.097334
578.000000	-0.102892
577.000000	-0.064981
576.000000	-0.010841
575.000000	-0.054189
574.000000	-0.086801
573.000000	-0.048868
572.000000	-0.130293
571.000000	0.021745
570.000000	-0.087075
569.000000	-0.098077
568.000000	-0.059890
567.000000	-0.049044
566.000000	-0.076373
565.000000	-0.043649
564.000000	-0.032737
563.000000	-0.136552
562.000000	-0.032801
561.000000	-0.076591
560.000000	-0.087585
559.000000	-0.016427
558.000000	-0.115169
557.000000	-0.098831
556.000000	-0.049399
555.000000	-0.087922
554.000000	-0.076957
553.000000	-0.076982
552.000000	-0.027482
551.000000	-0.060506
550.000000	-0.016527
549.000000	-0.093654
548.000000	-0.005516
547.000000	-0.071740
546.000000	0.005518
545.000000	-0.071748
544.000000	-0.110394
543.000000	-0.082887
542.000000	-0.049746
541.000000	-0.077412
540.000000	-0.071962
539.000000	-0.027728
538.000000	-0.055515
537.000000	-0.094324
536.000000	-0.094413
535.000000	-0.077778
534.000000	-0.050089
533.000000	-0.033396
532.000000	-0.016721
531.000000	-0.128291
530.000000	-0.100486
529.000000	-0.033521
528.000000	-0.033587
527.000000	-0.078392
526.000000	-0.016822
525.000000	-0.005613
524.000000	-0.129148
523.000000	-0.118163
522.000000	-0.056306
521.000000	-0.022563
520.000000	-0.028231
519.000000	-0.073438
518.000000	-0.124526
517.000000	-0.028314
516.000000	-0.034037
515.000000	-0.028406
514.000000	-0.005693
513.000000	-0.039881
512.000000	0.017098
511.000000	-0.085665
510.000000	-0.068618
509.000000	-0.063001
508.000000	-0.057422
507.000000	-0.011494
506.000000	-0.046017
505.000000	-0.126933
504.000000	-0.046245
503.000000	-0.104299
502.000000	-0.011606
501.000000	-0.127751
500.000000	-0.081495
499.000000	-0.139991
498.000000	-0.017540
497.000000	-0.058531
496.000000	-0.041039
495.000000	-0.117550
494.000000	-0.094262
493.000000	-0.200519
492.000000	-0.112399
491.000000	-0.053431
490.000000	-0.041590
489.000000	0.017885
488.000000	-0.065691
487.000000	-0.017971
486.000000	-0.114121
485.000000	-0.078365
484.000000	-0.144919
483.000000	-0.133277
482.000000	-0.097205
481.000000	-0.079215
480.000000	-0.128464
479.000000	0.024514
478.000000	-0.036887
477.000000	-0.179012
476.000000	-0.123785
475.000000	-0.086881
474.000000	-0.118402
473.000000	-0.093885
472.000000	-0.056423
471.000000	-0.226472
470.000000	-0.195930
469.000000	-0.126831
468.000000	-0.095499
467.000000	-0.184973
466.000000	-0.166496
465.000000	-0.238095
464.000000	-0.154879
463.000000	0.006468
462.000000	-0.182161
461.000000	-0.130327
460.000000	-0.144423
459.000000	-0.098522
458.000000	-0.230932
457.000000	-0.304172
456.000000	-0.079681
455.000000	-0.353758
454.000000	-0.060197
453.000000	-0.134789
452.000000	-0.242964
451.000000	-0.121860
450.000000	-0.067898
449.000000	-0.300055
448.000000	-0.130146
447.000000	-0.206569
446.000000	-0.186130
445.000000	-0.222361
444.000000	-0.293296
443.000000	-0.063176
442.000000	-0.197824
441.000000	-0.397022
440.000000	-0.234909
439.000000	-0.258009
438.000000	-0.201860
437.000000	-0.181409
436.000000	-0.254861
435.000000	-0.153779
434.000000	-0.205973
433.000000	-0.586184
432.000000	-0.194305
431.000000	-0.374532
430.000000	-0.294807
429.000000	-0.235455
428.000000	-0.381243
427.000000	-0.550543
426.000000	-0.416025
425.000000	-0.309933
424.000000	-0.631677
423.000000	-0.313701
422.000000	-0.126462
421.000000	-0.427757
420.000000	-0.262760
419.000000	-0.016001
418.000000	-0.032121
417.000000	-0.153511
416.000000	-0.089264
415.000000	-0.146771
414.000000	-0.098449
413.000000	-0.131883
412.000000	-0.132593
411.000000	-0.133256
410.000000	-0.117223
409.000000	-0.058883
408.000000	-0.126882
407.000000	-0.101997
406.000000	-0.145324
405.000000	-0.163104
404.000000	-0.120835
403.000000	0.060732
402.000000	0.008714
401.000000	-0.043802
400.000000	0.158912
399.000000	0.203865
398.000000	0.320741
397.000000	0.573528
396.000000	0.818934
395.000000	1.222605
394.000000	1.827107
393.000000	2.709382
392.000000	3.503596
391.000000	4.727408
390.000000	6.364315
389.000000	7.883623
388.000000	9.932024
387.000000	11.741237
386.000000	13.818736
385.000000	14.626576
384.000000	17.402853
383.000000	15.732779
382.000000	20.718040
381.000000	23.780549
380.000000	26.096448
379.000000	30.275045
378.000000	31.597718
377.000000	33.832634
376.000000	35.039011
375.000000	36.815870
374.000000	37.318654
373.000000	40.735737
372.000000	42.498671
371.000000	42.848054
370.000000	43.713857
369.000000	44.073599
368.000000	44.527122
367.000000	46.703898
366.000000	46.653543
365.000000	47.120709
364.000000	47.097493
363.000000	47.114953
362.000000	48.188653
361.000000	48.285780
360.000000	46.597159
359.000000	47.681661
358.000000	47.568013
357.000000	45.903955
356.000000	46.661923
355.000000	45.842697
354.000000	44.714387
353.000000	43.081381
352.000000	45.445520
351.000000	42.181245
350.000000	40.599022
349.000000	41.315595
348.000000	41.487231
347.000000	39.665577
346.000000	38.518143
345.000000	37.104930
344.000000	35.235892
343.000000	36.762442
342.000000	34.712372
341.000000	33.036416
340.000000	32.809430
339.000000	31.369681
338.000000	29.892815
337.000000	27.788204
336.000000	26.888298
335.000000	24.876420
334.000000	25.429506
333.000000	20.466464
332.000000	20.906732
331.000000	19.769674
330.000000	18.878848
329.000000	16.091151
328.000000	16.122952
327.000000	13.155278
326.000000	16.201041
325.000000	13.329661
324.000000	12.141157
323.000000	11.159097
322.000000	10.336538
321.000000	8.935146
320.000000	8.466657
319.000000	6.696237
318.000000	6.144037
317.000000	4.506344
316.000000	4.469274
315.000000	3.040190
314.000000	1.164875
313.000000	1.762845
312.000000	1.350736
311.000000	-0.272562
310.000000	0.399202
309.000000	-0.633205
308.000000	-0.498675
307.000000	-0.818253
306.000000	-1.421576
305.000000	-0.880846
304.000000	-0.581020
303.000000	-1.110385
302.000000	-0.510204
301.000000	-1.285047
300.000000	-0.755034
299.000000	-1.070518
298.000000	-0.724888
297.000000	-1.048768
296.000000	0.176523
295.000000	-1.015138
294.000000	-1.324266
293.000000	-1.203282
292.000000	-1.138450
291.000000	-0.560538
290.000000	-1.261770
289.000000	-1.668265
288.000000	-1.507346
287.000000	-0.394711
286.000000	-0.933095
285.000000	-2.150322
284.000000	-0.998167
283.000000	-1.653399
282.000000	-0.974295
281.000000	-0.233347
280.000000	-0.128315
279.000000	-1.183559
278.000000	-1.433225
277.000000	-0.394564
276.000000	-1.161517
275.000000	-0.221631
274.000000	-1.029313
273.000000	-0.785458
272.000000	-1.429220
271.000000	-0.890614
270.000000	-0.457980
269.000000	-0.642349
268.000000	-0.834492
267.000000	-0.996062
266.000000	-0.979706
265.000000	-1.477833
264.000000	-1.254735
263.000000	-1.015109
262.000000	0.263347
261.000000	-1.782274
260.000000	-0.389769
259.000000	-0.739098
258.000000	-0.817844
257.000000	-0.726271
256.000000	-0.503651
255.000000	-1.427115
254.000000	-0.879007
253.000000	-0.858928
252.000000	-0.791557
251.000000	-1.362908
250.000000	-0.246036
